NO_OF_FRAMES	674
NO_OF_CAMERAS	2
NO_OF_MARKERS	2
FREQUENCY	500
NO_OF_ANALOG	0
ANALOG_FREQUENCY	0
DESCRIPTION	--
TIME_STAMP	2024-11-07, 11:47:08.600	5910.67181340
DATA_INCLUDED	3D
MARKER_NAMES	New 0000	New 0001
TRAJECTORY_TYPES	Measured	Measured
456.583	349.775	227.625	60.994	330.055	231.118
455.454	349.719	227.604	61.026	330.050	231.109
454.263	349.620	227.635	61.066	330.037	231.110
453.088	349.521	227.670	61.107	330.032	231.112
451.932	349.459	227.660	61.141	330.031	231.128
450.811	349.423	227.632	61.182	330.018	231.129
449.666	349.400	227.617	61.221	330.014	231.105
448.501	349.374	227.650	61.255	330.007	231.122
447.327	349.322	227.668	61.295	330.001	231.123
446.161	349.265	227.677	61.343	329.996	231.109
445.031	349.210	227.642	61.377	329.989	231.125
443.909	349.175	227.621	61.408	329.983	231.116
442.760	349.087	227.584	61.448	329.976	231.117
441.576	349.020	227.645	61.496	329.985	231.103
440.384	348.955	227.669	61.521	329.985	231.109
439.227	348.906	227.649	61.570	329.978	231.120
438.097	348.885	227.598	61.610	329.986	231.122
436.950	348.877	227.571	61.650	329.993	231.123
435.785	348.846	227.568	61.691	330.001	231.124
434.611	348.802	227.577	61.731	330.002	231.125
433.444	348.750	227.601	61.772	330.010	231.126
432.297	348.707	227.579	61.812	330.011	231.127
431.165	348.680	227.535	61.869	330.019	231.124
430.042	348.599	227.479	61.909	330.028	231.125
428.857	348.545	227.453	61.950	330.036	231.127
427.673	348.497	227.507	61.984	330.043	231.143
426.497	348.439	227.526	62.033	330.051	231.155
425.347	348.403	227.510	62.081	330.060	231.141
424.207	348.401	227.486	62.121	330.068	231.142
423.089	348.385	227.477	62.152	330.083	231.133
421.930	348.360	227.503	62.193	330.097	231.134
420.763	348.335	227.517	62.233	330.113	231.135
419.602	348.295	227.570	62.273	330.126	231.136
418.451	348.279	227.563	62.305	330.142	231.127
417.326	348.250	227.548	62.345	330.156	231.128
416.191	348.176	227.492	62.384	330.177	231.129
415.024	348.101	227.461	62.415	330.192	231.120
413.831	348.062	227.469	62.455	330.213	231.121
412.647	348.010	227.491	62.486	330.227	231.111
411.481	347.960	227.466	62.526	330.242	231.112
410.331	347.937	227.445	62.566	330.256	231.113
409.207	347.881	227.414	62.606	330.270	231.114
408.066	347.832	227.384	62.637	330.285	231.105
406.924	347.801	227.379	62.677	330.306	231.106
405.765	347.769	227.401	62.717	330.328	231.107
404.613	347.723	227.435	62.757	330.342	231.108
403.460	347.597	227.443	62.797	330.357	231.109
402.308	347.518	227.454	62.837	330.371	231.110
401.172	347.433	227.468	62.877	330.384	231.111
400.046	347.390	227.447	62.925	330.412	231.122
398.904	347.365	227.452	62.958	330.424	231.138
397.729	347.340	227.457	63.005	330.447	231.124
396.544	347.315	227.474	63.045	330.461	231.125
395.368	347.285	227.455	63.078	330.475	231.141
394.217	347.235	227.426	63.125	330.496	231.127
393.083	347.167	227.375	63.165	330.511	231.128
391.955	347.037	227.336	63.205	330.525	231.129
390.803	346.978	227.337	63.236	330.554	231.120
389.636	346.926	227.338	63.273	330.562	231.095
388.485	346.866	227.368	63.307	330.583	231.112
387.325	346.812	227.411	63.345	330.599	231.087
386.174	346.746	227.417	63.394	330.606	231.099
385.031	346.667	227.413	63.435	330.628	231.100
383.904	346.618	227.386	63.481	330.636	231.086
382.777	346.554	227.359	63.515	330.651	231.103
381.641	346.453	227.294	63.562	330.659	231.089
380.448	346.407	227.293	63.594	330.660	231.080
379.262	346.360	227.330	63.642	330.666	231.091
378.085	346.301	227.333	63.676	330.673	231.107
376.933	346.222	227.324	63.716	330.680	231.108
375.781	346.144	227.317	63.757	330.681	231.110
374.656	346.074	227.277	63.790	330.688	231.126
373.529	346.009	227.262	63.830	330.695	231.127
372.418	345.899	227.222	63.871	330.690	231.128
371.265	345.803	227.271	63.911	330.697	231.129
370.096	345.742	227.321	63.944	330.703	231.145
368.936	345.702	227.334	63.987	330.696	231.172
367.774	345.609	227.348	64.025	330.698	231.148
366.612	345.552	227.313	64.066	330.698	231.149
365.452	345.488	227.281	64.107	330.700	231.151
364.316	345.438	227.238	64.141	330.700	231.167
363.203	345.301	227.183	64.181	330.693	231.168
362.043	345.229	227.180	64.230	330.693	231.180
360.883	345.160	227.229	64.271	330.688	231.181
359.732	345.114	227.243	64.319	330.697	231.168
358.588	345.033	227.270	64.362	330.683	231.194
357.428	344.945	227.297	64.409	330.692	231.181
356.292	344.851	227.314	64.450	330.686	231.182
355.147	344.764	227.319	64.507	330.673	231.179
354.010	344.621	227.236	64.548	330.668	231.181
352.841	344.551	227.180	64.589	330.662	231.182
351.681	344.501	227.140	64.636	330.664	231.169
350.539	344.435	227.129	64.676	330.657	231.170
349.388	344.383	227.130	64.724	330.652	231.156
348.246	344.302	227.145	64.765	330.639	231.158
347.102	344.228	227.161	64.806	330.633	231.159
345.949	344.120	227.189	64.853	330.635	231.146
344.801	343.950	227.202	64.894	330.622	231.147
343.647	343.863	227.207	64.941	330.610	231.133
342.486	343.812	227.177	64.982	330.603	231.135
341.333	343.769	227.137	65.007	330.597	231.141
340.189	343.719	227.085	65.048	330.585	231.143
339.055	343.655	227.049	65.089	330.578	231.144
337.920	343.596	227.039	65.136	330.566	231.130
336.776	343.522	227.067	65.170	330.559	231.147
335.654	343.352	227.080	65.211	330.546	231.148
334.493	343.249	227.134	65.260	330.539	231.160
333.340	343.188	227.153	65.309	330.528	231.146
332.196	343.114	227.160	65.349	330.521	231.148
331.025	343.056	227.130	65.399	330.501	231.160
329.855	343.006	227.078	65.440	330.502	231.161
328.703	342.941	227.052	65.481	330.483	231.163
327.575	342.871	226.991	65.522	330.470	231.164
326.447	342.709	226.978	65.572	330.464	231.176
325.318	342.607	227.018	65.612	330.451	231.177
324.192	342.548	227.012	65.670	330.439	231.175
323.072	342.501	227.043	65.711	330.426	231.176
321.920	342.439	227.075	65.752	330.420	231.178
320.748	342.401	227.058	65.793	330.415	231.179
319.570	342.356	227.030	65.841	330.396	231.166
318.409	342.283	227.004	65.882	330.391	231.168
317.256	342.202	227.016	65.939	330.386	231.165
316.128	342.024	227.041	65.979	330.373	231.166
314.991	341.921	227.080	66.027	330.368	231.153
313.863	341.874	227.109	66.068	330.355	231.154
312.743	341.836	227.102	66.109	330.349	231.156
311.614	341.812	227.083	66.157	330.344	231.143
310.451	341.775	227.015	66.191	330.338	231.159
309.296	341.739	226.962	66.247	330.332	231.156
308.151	341.681	226.922	66.288	330.340	231.157
307.015	341.602	226.897	66.328	330.327	231.159
305.883	341.480	226.881	66.378	330.321	231.171
304.738	341.397	226.920	66.419	330.314	231.172
303.593	341.341	226.986	66.459	330.314	231.173
302.430	341.322	226.978	66.500	330.316	231.175
301.250	341.311	226.947	66.540	330.309	231.176
300.088	341.293	226.918	66.581	330.310	231.178
298.918	341.254	226.902	66.622	330.305	231.179
297.783	341.187	226.913	66.662	330.305	231.180
296.654	341.119	226.936	66.710	330.293	231.167
295.534	341.065	226.948	66.744	330.293	231.183
294.402	340.929	226.945	66.791	330.302	231.170
293.254	340.883	226.921	66.832	330.302	231.171
292.082	340.845	226.862	66.872	330.303	231.173
290.919	340.807	226.818	66.906	330.303	231.189
289.782	340.763	226.788	66.953	330.304	231.175
288.662	340.710	226.783	66.993	330.305	231.177
287.550	340.669	226.816	67.033	330.312	231.178
286.421	340.629	226.826	67.081	330.313	231.164
285.292	340.575	226.836	67.136	330.321	231.161
284.111	340.565	226.775	67.177	330.321	231.162
282.947	340.540	226.740	67.217	330.330	231.164
281.816	340.419	226.703	67.264	330.337	231.150
280.662	340.349	226.732	67.313	330.351	231.161
279.526	340.313	226.788	67.353	330.358	231.163
278.406	340.273	226.820	67.409	330.359	231.159
277.278	340.244	226.865	67.440	330.374	231.150
276.107	340.234	226.827	67.474	330.388	231.166
274.927	340.223	226.777	67.514	330.402	231.168
273.783	340.185	226.754	67.561	330.417	231.154
272.630	340.138	226.744	67.601	330.424	231.155
271.518	340.084	226.770	67.640	330.452	231.156
270.398	340.028	226.810	67.680	330.459	231.157
269.285	339.967	226.813	67.730	330.467	231.169
268.117	339.867	226.716	67.770	330.481	231.171
266.937	339.799	226.701	67.811	330.490	231.172
265.785	339.752	226.699	67.844	330.511	231.188
264.640	339.706	226.685	67.891	330.512	231.175
263.521	339.650	226.734	67.925	330.533	231.191
262.409	339.595	226.770	67.972	330.556	231.178
261.263	339.569	226.759	68.006	330.563	231.194
260.074	339.558	226.690	68.055	330.577	231.206
258.937	339.526	226.670	68.111	330.585	231.202
257.800	339.487	226.651	68.151	330.599	231.204
256.681	339.439	226.682	68.191	330.613	231.205
255.569	339.385	226.701	68.247	330.628	231.202
254.478	339.239	226.702	68.287	330.643	231.203
253.281	339.192	226.655	68.327	330.650	231.204
252.126	339.174	226.617	68.367	330.664	231.205
250.981	339.135	226.595	68.414	330.679	231.192
249.845	339.102	226.585	68.470	330.694	231.189
248.724	339.082	226.599	68.501	330.709	231.180
247.612	339.061	226.627	68.548	330.710	231.166
246.457	339.042	226.596	68.588	330.725	231.167
245.277	339.017	226.532	68.629	330.733	231.169
244.133	338.971	226.518	68.676	330.748	231.155
242.988	338.939	226.504	68.710	330.755	231.172
241.882	338.798	226.522	68.750	330.770	231.173
240.753	338.734	226.557	68.797	330.778	231.159
239.599	338.707	226.560	68.837	330.792	231.161
238.419	338.689	226.504	68.870	330.805	231.177
237.284	338.643	226.484	68.926	330.814	231.174
236.149	338.596	226.491	68.959	330.820	231.190
235.030	338.549	226.496	69.007	330.829	231.177
233.919	338.506	226.539	69.047	330.851	231.178
232.747	338.487	226.501	69.087	330.858	231.179
231.585	338.448	226.452	69.137	330.873	231.191
230.458	338.382	226.427	69.177	330.874	231.193
229.344	338.245	226.398	69.224	330.889	231.179
228.217	338.147	226.424	69.265	330.890	231.181
227.097	338.118	226.462	69.306	330.898	231.182
225.916	338.099	226.395	69.346	330.912	231.184
224.773	338.053	226.378	69.378	330.921	231.175
223.638	337.992	226.374	69.418	330.921	231.176
222.504	337.937	226.396	69.459	330.929	231.178
221.384	337.888	226.416	69.515	330.931	231.175
220.248	337.854	226.414	69.555	330.945	231.176
219.077	337.814	226.367	69.596	330.946	231.178
217.966	337.670	226.353	69.652	330.947	231.175
216.837	337.559	226.341	69.692	330.947	231.176
215.703	337.504	226.370	69.749	330.956	231.173
214.586	337.441	226.399	69.805	330.950	231.170
213.407	337.421	226.372	69.839	330.951	231.187
212.264	337.361	226.345	69.895	330.952	231.184
211.131	337.280	226.355	69.936	330.946	231.186
209.998	337.211	226.367	69.977	330.939	231.187
208.871	337.155	226.389	70.017	330.940	231.188
207.726	337.107	226.365	70.058	330.942	231.190
206.568	336.975	226.303	70.108	330.936	231.203
205.436	336.865	226.320	70.149	330.937	231.204
204.304	336.804	226.339	70.189	330.930	231.205
203.178	336.742	226.344	70.230	330.924	231.207
202.042	336.714	226.338	70.271	330.926	231.209
200.864	336.667	226.301	70.318	330.920	231.195
199.740	336.592	226.311	70.359	330.914	231.197
198.617	336.495	226.347	70.400	330.922	231.199
197.492	336.426	226.359	70.440	330.916	231.200
196.360	336.298	226.342	70.497	330.917	231.197
195.529	336.208	226.339	70.237	330.911	231.192
195.260	336.199	226.389	69.319	330.850	231.219
194.909	336.178	226.403	68.615	330.784	231.290
194.488	336.126	226.631	67.981	330.722	231.444
194.083	336.154	226.576	67.353	330.662	231.559
193.714	336.077	226.658	66.710	330.600	231.587
193.287	336.065	226.760	66.079	330.529	231.652
192.906	336.030	226.616	65.456	330.469	231.637
192.550	335.970	226.620	64.825	330.401	231.612
192.106	335.967	226.536	64.199	330.330	231.547
191.838	335.807	226.557	63.572	330.267	231.457
191.452	335.779	226.360	62.960	330.197	231.363
191.153	335.742	226.345	62.335	330.141	231.233
190.895	335.723	226.386	61.715	330.086	231.130
190.561	335.731	226.307	61.118	330.031	231.032
190.323	335.669	226.230	60.510	329.979	230.990
190.106	335.624	226.252	59.895	329.919	230.963
189.753	335.535	226.290	59.260	329.875	231.006
189.376	335.450	226.295	58.634	329.813	231.035
189.124	335.376	226.296	57.972	329.754	231.114
188.724	335.388	226.319	57.334	329.700	231.108
188.336	335.367	226.356	56.669	329.634	231.163
188.075	335.314	226.346	56.024	329.571	231.173
187.660	335.315	226.256	55.347	329.530	231.167
187.317	335.268	226.325	54.683	329.476	231.132
186.997	335.241	226.311	54.004	329.434	231.127
186.647	335.198	226.162	53.356	329.388	231.088
186.344	335.148	226.262	52.694	329.362	231.080
185.994	335.141	226.279	52.022	329.316	231.036
185.663	335.091	226.179	51.357	329.289	231.003
185.413	335.017	226.207	50.720	329.255	231.001
185.072	335.038	226.236	50.086	329.200	231.025
184.696	334.997	226.219	49.446	329.181	230.999
184.454	334.904	226.209	48.794	329.139	231.003
184.167	334.780	226.189	48.173	329.113	230.998
183.775	334.759	226.176	47.531	329.085	231.039
183.495	334.650	226.236	46.892	329.066	231.014
183.216	334.605	226.179	46.240	329.045	231.020
182.831	334.620	226.152	45.619	329.027	231.016
182.538	334.578	226.265	44.966	328.991	231.023
182.225	334.547	226.214	44.318	328.972	230.989
181.893	334.530	226.114	43.649	328.949	231.001
181.610	334.488	226.239	43.011	328.916	230.978
181.240	334.508	226.235	42.359	328.895	230.987
180.934	334.478	226.144	41.695	328.853	230.959
180.662	334.423	226.215	41.034	328.833	230.958
180.293	334.471	226.211	40.381	328.797	230.967
179.948	334.465	226.191	39.745	328.776	230.972
179.712	334.419	226.191	39.090	328.762	230.957
179.350	334.460	226.173	38.429	328.754	230.957
178.991	334.494	226.181	37.775	328.728	230.943
178.732	334.453	226.224	37.147	328.719	230.959
178.381	334.469	226.126	36.499	328.699	230.930
178.041	334.504	226.158	35.830	328.686	230.922
177.743	334.508	226.246	35.192	328.666	230.904
177.389	334.537	226.122	34.549	328.657	230.927
177.088	334.525	226.135	33.896	328.645	230.915
176.801	334.552	226.235	33.233	328.631	230.893
176.392	334.594	226.135	32.580	328.626	230.883
176.125	334.548	226.143	31.944	328.612	230.892
175.835	334.561	226.218	31.304	328.614	230.851
175.422	334.645	226.159	30.637	328.584	230.872
175.156	334.579	226.167	29.988	328.594	230.822
174.888	334.558	226.199	29.364	328.570	230.868
174.475	334.643	226.141	28.718	328.572	230.844
174.189	334.603	226.218	28.055	328.559	230.826
173.918	334.582	226.224	27.409	328.561	230.803
173.535	334.641	226.110	26.777	328.538	230.841
173.251	334.628	226.213	26.131	328.526	230.819
172.942	334.606	226.239	25.470	328.514	230.802
172.588	334.643	226.118	24.807	328.520	230.786
172.311	334.612	226.183	24.166	328.498	230.815
171.996	334.647	226.225	23.530	328.486	230.805
171.627	334.675	226.132	22.853	328.479	230.795
171.394	334.608	226.161	22.191	328.457	230.780
171.070	334.650	226.192	21.538	328.435	230.776
170.661	334.746	226.119	20.905	328.400	230.792
170.410	334.691	226.150	20.259	328.379	230.774
170.121	334.705	226.134	19.606	328.357	230.770
169.707	334.809	226.077	18.970	328.350	230.762
169.427	334.787	226.165	18.343	328.309	230.765
169.146	334.774	226.136	17.708	328.296	230.758
168.764	334.824	226.048	17.047	328.260	230.747
168.486	334.858	226.162	16.402	328.240	230.731
168.147	334.869	226.155	15.785	328.206	230.745
167.798	334.864	226.062	15.134	328.171	230.745
167.535	334.879	226.149	14.465	328.143	230.726
167.148	334.948	226.127	13.814	328.123	230.726
166.820	334.895	226.083	13.163	328.088	230.728
166.587	334.860	226.137	12.522	328.053	230.740
166.174	334.958	226.082	11.853	328.033	230.722
165.852	334.932	226.116	11.185	328.005	230.704
165.618	334.869	226.170	10.532	327.971	230.681
165.234	334.941	226.058	9.900	327.936	230.705
164.922	334.951	226.104	9.256	327.923	230.693
164.658	334.894	226.190	8.597	327.881	230.687
164.279	334.922	226.063	7.945	327.855	230.667
163.998	334.906	226.079	7.320	327.806	230.676
163.729	334.906	226.180	6.686	327.772	230.676
163.326	334.933	226.070	6.025	327.723	230.646
163.053	334.859	226.096	5.366	327.675	230.643
162.790	334.868	226.159	4.739	327.627	230.629
162.366	334.938	226.068	4.099	327.563	230.646
162.101	334.835	226.105	3.447	327.529	230.628
161.842	334.802	226.127	2.773	327.463	230.631
161.436	334.886	226.059	2.129	327.410	230.598
161.157	334.824	226.125	1.499	327.333	230.627
160.916	334.749	226.170	0.863	327.292	230.605
160.521	334.791	226.047	0.196	327.244	230.595
160.237	334.787	226.129	-0.440	327.210	230.574
159.972	334.710	226.191	-1.069	327.148	230.605
159.585	334.724	226.055	-1.694	327.095	230.595
159.322	334.679	226.093	-2.361	327.060	230.586
159.037	334.672	226.200	-3.006	327.004	230.556
158.642	334.692	226.077	-3.644	326.956	230.578
158.369	334.590	226.104	-4.270	326.879	230.570
158.100	334.486	226.115	-4.935	326.838	230.563
157.684	334.548	226.037	-5.589	326.790	230.524
157.405	334.415	226.103	-6.237	326.733	230.538
157.128	334.367	226.104	-6.868	326.670	230.547
156.722	334.439	226.013	-7.524	326.615	230.552
156.462	334.386	226.104	-8.193	326.574	230.521
156.141	334.328	226.098	-8.848	326.519	230.527
155.776	334.325	225.988	-9.473	326.472	230.521
155.509	334.314	226.093	-10.119	326.431	230.538
155.173	334.305	226.092	-10.761	326.379	230.513
154.809	334.245	226.007	-11.410	326.324	230.505
154.580	334.193	226.066	-12.041	326.283	230.517
154.246	334.243	226.066	-12.662	326.235	230.539
153.860	334.190	225.999	-13.311	326.181	230.532
153.621	334.086	226.072	-13.971	326.107	230.490
153.294	334.089	226.033	-14.617	326.049	230.509
152.927	334.080	225.991	-15.236	326.002	230.491
152.682	333.968	226.077	-15.882	325.923	230.510
152.335	333.927	226.015	-16.533	325.876	230.479
152.002	333.892	225.967	-17.215	325.814	230.461
151.758	333.853	226.056	-17.848	325.758	230.450
151.416	333.683	225.977	-18.494	325.708	230.472
151.098	333.587	225.950	-19.127	325.660	230.462
150.877	333.542	226.021	-19.799	325.619	230.455
150.545	333.547	225.999	-20.441	325.565	230.436
150.192	333.476	225.976	-21.079	325.524	230.444
149.981	333.372	226.084	-21.694	325.482	230.455
149.655	333.398	226.047	-22.357	325.455	230.459
149.303	333.408	226.001	-23.001	325.409	230.417
149.058	333.294	226.113	-23.646	325.374	230.442
148.711	333.289	226.053	-24.263	325.325	230.429
148.368	333.315	225.995	-24.911	325.290	230.428
148.131	333.246	226.094	-25.568	325.248	230.418
147.743	333.208	226.053	-26.225	325.221	230.409
147.415	333.185	225.991	-26.863	325.177	230.420
147.164	333.152	226.095	-27.505	325.157	230.405
146.772	333.172	226.003	-28.161	325.114	230.397
146.454	333.077	225.978	-28.820	325.089	230.364
146.216	333.022	226.052	-29.477	325.054	230.356
145.823	333.001	225.935	-30.109	325.039	230.353
145.500	332.888	225.974	-30.757	325.002	230.356
145.261	332.803	226.048	-31.401	324.977	230.318
144.877	332.828	225.919	-32.054	324.954	230.338
144.581	332.819	225.943	-32.673	324.921	230.304
144.319	332.734	226.035	-33.323	324.911	230.351
143.926	332.721	225.920	-33.945	324.880	230.292
143.653	332.698	225.926	-34.613	324.864	230.320
143.416	332.687	226.002	-35.251	324.838	230.268
142.994	332.652	225.920	-35.895	324.821	230.300
142.711	332.597	225.939	-36.535	324.814	230.291
142.481	332.607	226.001	-37.197	324.792	230.304
142.091	332.632	225.888	-37.856	324.778	230.276
141.786	332.547	225.950	-38.502	324.756	230.284
141.554	332.512	226.010	-39.142	324.741	230.276
141.172	332.574	225.884	-39.788	324.720	230.285
140.882	332.540	225.919	-40.421	324.707	230.262
140.628	332.479	226.047	-41.077	324.692	230.262
140.252	332.491	225.905	-41.718	324.697	230.255
139.955	332.508	225.931	-42.342	324.669	230.243
139.724	332.486	226.017	-42.993	324.675	230.270
139.317	332.472	225.932	-43.621	324.654	230.233
139.033	332.454	225.927	-44.282	324.638	230.251
138.787	332.475	226.018	-44.919	324.625	230.204
138.396	332.498	225.905	-45.560	324.609	230.243
138.090	332.428	225.944	-46.198	324.602	230.197
137.840	332.436	225.983	-46.848	324.587	230.226
137.451	332.488	225.897	-47.505	324.573	230.204
137.170	332.467	225.944	-48.169	324.557	230.199
136.869	332.442	225.992	-48.801	324.537	230.181
136.505	332.482	225.889	-49.461	324.528	230.202
136.243	332.477	225.959	-50.103	324.506	230.175
135.923	332.475	225.960	-50.756	324.500	230.181
135.544	332.462	225.910	-51.389	324.470	230.164
135.315	332.458	225.974	-52.018	324.454	230.174
134.993	332.506	225.950	-52.663	324.438	230.191
