NO_OF_FRAMES	458
NO_OF_CAMERAS	2
NO_OF_MARKERS	2
FREQUENCY	500
NO_OF_ANALOG	0
ANALOG_FREQUENCY	0
DESCRIPTION	--
TIME_STAMP	2024-11-07, 11:47:08.600	5910.67181340
DATA_INCLUDED	3D
MARKER_NAMES	New 0000	New 0001
TRAJECTORY_TYPES	Measured	Measured
528.984	354.907	227.884	42.421	328.954	230.967
527.451	354.807	227.862	42.470	328.940	230.978
525.849	354.738	227.881	42.511	328.941	230.978
524.175	354.656	227.875	42.551	328.934	230.978
522.689	354.553	227.872	42.607	328.936	230.974
521.146	354.367	227.790	42.656	328.930	230.985
519.482	354.260	227.869	42.696	328.937	230.985
517.944	354.167	227.914	42.753	328.932	230.981
516.430	354.038	227.812	42.793	328.932	230.981
514.829	353.924	227.798	42.849	328.934	230.976
513.278	353.729	227.883	42.896	328.943	230.962
511.737	353.581	227.794	42.954	328.949	230.982
510.128	353.452	227.828	43.001	328.958	230.968
508.604	353.308	227.916	43.059	328.958	230.989
507.080	353.146	227.760	43.106	328.967	230.974
505.455	352.988	227.805	43.146	328.982	230.974
503.871	352.902	227.929	43.195	328.996	230.985
502.315	352.820	227.752	43.242	329.005	230.970
500.732	352.674	227.801	43.291	329.026	230.981
499.155	352.529	227.865	43.331	329.047	230.981
497.562	352.408	227.765	43.371	329.062	230.981
495.996	352.252	227.827	43.419	329.082	230.992
494.390	352.194	227.847	43.453	329.103	231.007
492.873	352.039	227.731	43.499	329.111	230.992
491.309	351.813	227.807	43.548	329.125	231.003
489.647	351.777	227.789	43.587	329.146	231.003
488.152	351.631	227.724	43.634	329.153	230.988
486.565	351.511	227.794	43.674	329.168	230.988
484.980	351.416	227.680	43.714	329.182	230.989
483.468	351.192	227.703	43.762	329.195	230.999
481.826	351.094	227.737	43.811	329.209	231.009
480.274	351.037	227.691	43.857	329.231	230.994
478.769	350.873	227.735	43.906	329.245	231.005
477.137	350.709	227.662	43.945	329.258	231.005
475.603	350.588	227.712	43.992	329.281	230.990
474.058	350.438	227.720	44.031	329.301	230.990
472.403	350.402	227.696	44.080	329.316	231.001
470.927	350.291	227.697	44.127	329.331	230.986
469.308	350.134	227.638	44.167	329.345	230.986
467.739	350.014	227.669	44.213	329.368	230.971
466.210	349.904	227.693	44.253	329.396	230.972
464.553	349.815	227.654	44.309	329.411	230.967
463.034	349.788	227.702	44.348	329.418	230.967
461.456	349.705	227.625	44.404	329.441	230.963
459.862	349.599	227.652	44.453	329.455	230.973
458.380	349.499	227.643	44.502	329.483	230.984
456.727	349.399	227.602	44.558	329.505	230.980
455.180	349.349	227.695	44.622	329.527	230.985
453.618	349.326	227.610	44.678	329.550	230.981
451.998	349.239	227.660	44.727	329.564	230.992
450.501	349.243	227.665	44.792	329.594	230.998
448.881	349.179	227.592	44.841	329.608	231.008
447.340	349.109	227.684	44.897	329.623	231.004
445.786	349.030	227.547	44.946	329.638	231.015
444.170	348.909	227.620	44.993	329.661	231.000
442.631	348.871	227.645	45.033	329.676	231.000
441.036	348.819	227.576	45.083	329.684	231.011
439.476	348.774	227.704	45.120	329.699	230.986
437.909	348.767	227.557	45.178	329.705	231.007
436.325	348.692	227.648	45.218	329.734	231.007
434.770	348.685	227.608	45.274	329.735	231.003
433.198	348.604	227.568	45.321	329.736	230.988
431.662	348.476	227.643	45.360	329.743	230.988
430.075	348.435	227.506	45.410	329.751	230.999
428.480	348.329	227.645	45.466	329.760	230.995
426.926	348.333	227.542	45.522	329.761	230.991
425.330	348.246	227.577	45.571	329.761	231.002
423.788	348.237	227.580	45.627	329.763	230.997
422.183	348.227	227.479	45.684	329.765	230.993
420.637	348.171	227.585	45.730	329.773	230.978
419.047	348.192	227.439	45.780	329.767	230.989
417.476	348.057	227.509	45.821	329.768	230.990
415.891	348.060	227.430	45.877	329.770	230.986
414.305	347.965	227.505	45.918	329.771	230.987
412.730	347.978	227.472	45.965	329.773	230.972
411.181	347.910	227.432	46.013	329.779	230.983
409.595	347.881	227.517	46.060	329.781	230.968
408.041	347.824	227.394	46.110	329.781	230.979
406.471	347.787	227.510	46.156	329.775	230.964
404.908	347.753	227.354	46.206	329.769	230.975
403.345	347.616	227.435	46.253	329.771	230.960
401.761	347.585	227.355	46.303	329.757	230.971
400.192	347.448	227.430	46.352	329.744	230.982
398.617	347.460	227.396	46.409	329.739	230.978
397.067	347.356	227.379	46.458	329.732	230.989
395.466	347.347	227.461	46.514	329.719	230.985
393.924	347.270	227.335	46.565	329.707	230.996
392.347	347.232	227.462	46.621	329.687	230.992
390.805	347.177	227.316	46.671	329.681	231.003
389.242	347.016	227.445	46.719	329.663	230.989
387.666	346.973	227.326	46.775	329.658	230.985
386.087	346.867	227.436	46.823	329.646	230.970
384.503	346.898	227.311	46.872	329.640	230.981
382.942	346.789	227.377	46.920	329.627	230.967
381.367	346.803	227.296	46.969	329.614	230.978
379.805	346.682	227.341	47.026	329.609	230.974
378.252	346.621	227.276	47.076	329.603	230.985
376.681	346.474	227.287	47.125	329.603	230.996
375.080	346.454	227.327	47.181	329.597	230.992
373.518	346.339	227.257	47.231	329.591	231.003
371.959	346.309	227.343	47.290	329.571	231.024
370.398	346.196	227.228	47.346	329.566	231.020
368.846	346.137	227.356	47.412	329.553	231.026
367.292	345.974	227.180	47.452	329.554	231.027
365.714	345.851	227.349	47.509	329.549	231.023
364.137	345.794	227.194	47.558	329.536	231.034
362.594	345.665	227.346	47.608	329.524	231.045
361.034	345.595	227.197	47.655	329.518	231.031
359.482	345.467	227.340	47.712	329.506	231.027
357.928	345.316	227.155	47.753	329.493	231.028
356.360	345.144	227.352	47.803	329.487	231.039
354.800	345.086	227.214	47.859	329.475	231.035
353.223	344.959	227.328	47.907	329.463	231.020
351.670	344.917	227.156	47.956	329.449	231.031
350.106	344.701	227.272	48.010	329.444	231.002
348.527	344.608	227.141	48.060	329.438	231.013
346.950	344.494	227.266	48.107	329.432	230.998
345.389	344.430	227.116	48.165	329.418	231.019
343.820	344.325	227.208	48.212	329.412	231.005
342.257	344.246	227.063	48.261	329.405	231.016
340.694	344.024	227.169	48.318	329.400	231.012
339.108	343.956	227.068	48.358	329.401	231.012
337.566	343.844	227.159	48.405	329.389	230.998
335.987	343.741	227.074	48.455	329.389	231.009
334.453	343.618	227.133	48.502	329.384	230.995
332.871	343.425	227.049	48.558	329.386	230.990
331.346	343.301	227.125	48.608	329.380	231.002
329.724	343.217	227.062	48.655	329.381	230.987
328.241	343.110	227.082	48.704	329.382	230.998
326.594	343.024	227.036	48.761	329.384	230.994
325.133	342.823	227.019	48.810	329.384	231.005
323.452	342.686	227.003	48.851	329.385	231.006
322.003	342.595	227.007	48.907	329.394	231.002
320.324	342.513	226.999	48.963	329.403	230.998
318.872	342.393	227.005	49.021	329.409	231.019
317.218	342.320	226.964	49.077	329.404	231.015
315.762	342.103	226.996	49.142	329.418	231.021
314.101	342.001	226.973	49.189	329.420	231.006
312.632	341.892	227.039	49.238	329.427	231.017
311.005	341.827	226.973	49.303	329.435	231.023
309.510	341.681	227.080	49.343	329.436	231.024
307.940	341.586	226.954	49.393	329.444	231.035
306.365	341.382	227.050	49.449	329.438	231.031
304.821	341.294	226.942	49.497	329.440	231.017
303.225	341.245	226.986	49.555	329.448	231.038
301.723	341.115	226.919	49.596	329.463	231.039
300.103	341.087	226.932	49.652	329.458	231.035
298.601	340.911	226.944	49.709	329.467	231.031
297.001	340.756	226.870	49.759	329.469	231.043
295.467	340.636	226.988	49.799	329.469	231.043
293.878	340.589	226.860	49.864	329.478	231.050
292.345	340.494	227.009	49.911	329.479	231.035
290.763	340.395	226.822	49.970	329.487	231.057
289.237	340.342	226.963	50.025	329.502	231.052
287.654	340.130	226.803	50.075	329.510	231.063
286.107	340.066	226.872	50.121	329.517	231.049
284.522	339.985	226.860	50.177	329.532	231.045
282.957	339.948	226.809	50.233	329.547	231.040
281.415	339.878	226.889	50.273	329.562	231.041
279.848	339.801	226.767	50.321	329.568	231.052
278.323	339.764	226.875	50.361	329.583	231.052
276.719	339.585	226.707	50.417	329.598	231.048
275.200	339.513	226.805	50.473	329.599	231.044
273.571	339.466	226.775	50.520	329.614	231.029
272.056	339.401	226.738	50.576	329.623	231.025
270.489	339.379	226.799	50.632	329.630	231.021
268.906	339.300	226.720	50.672	329.639	231.022
267.414	339.273	226.794	50.737	329.646	231.028
265.782	339.221	226.699	50.793	329.662	231.024
264.319	339.131	226.747	50.842	329.668	231.035
262.695	339.044	226.669	50.904	329.692	231.016
261.119	338.946	226.662	50.953	329.706	231.027
259.583	338.975	226.688	51.003	329.714	231.038
257.968	338.921	226.629	51.059	329.729	231.034
256.488	338.866	226.665	51.099	329.737	231.035
254.859	338.884	226.591	51.154	329.751	231.030
253.344	338.798	226.657	51.194	329.765	231.031
251.774	338.823	226.597	51.250	329.780	231.026
250.192	338.772	226.622	51.305	329.795	231.022
248.704	338.601	226.607	51.345	329.809	231.023
247.106	338.597	226.541	51.410	329.824	231.029
245.579	338.454	226.647	51.458	329.844	231.040
243.999	338.488	226.536	51.514	329.859	231.035
242.420	338.444	226.576	51.572	329.879	231.056
240.892	338.362	226.590	51.629	329.893	231.078
239.313	338.400	226.538	51.694	329.915	231.084
237.787	338.277	226.655	51.750	329.930	231.080
236.205	338.297	226.532	51.806	329.939	231.076
234.659	338.282	226.556	51.862	329.954	231.072
233.082	338.191	226.587	51.918	329.969	231.068
231.543	338.160	226.435	51.965	329.978	231.053
229.975	338.054	226.580	52.021	329.993	231.049
228.386	338.031	226.482	52.076	330.000	231.045
226.868	338.067	226.438	52.126	330.008	231.056
225.278	337.959	226.509	52.181	330.029	231.052
223.729	337.977	226.426	52.221	330.030	231.053
222.211	337.941	226.480	52.277	330.031	231.049
220.591	337.870	226.472	52.317	330.045	231.049
219.068	337.873	226.405	52.367	330.053	231.061
217.521	337.783	226.473	52.422	330.061	231.056
215.937	337.641	226.426	52.478	330.062	231.052
214.440	337.584	226.352	52.528	330.062	231.063
212.843	337.502	226.456	52.568	330.063	231.064
211.264	337.475	226.421	52.615	330.064	231.050
209.787	337.403	226.402	52.664	330.065	231.061
208.170	337.345	226.415	52.711	330.066	231.047
206.607	337.319	226.361	52.752	330.067	231.048
205.123	337.239	226.363	52.808	330.068	231.044
203.490	337.194	226.386	52.856	330.071	231.030
201.964	337.048	226.316	52.896	330.078	231.030
200.464	336.924	226.328	52.952	330.073	231.027
198.822	336.907	226.346	53.008	330.080	231.022
197.345	336.848	226.321	53.057	330.081	231.034
195.804	336.753	226.308	53.113	330.082	231.030
194.177	336.748	226.330	53.176	330.070	231.011
192.703	336.631	226.363	53.226	330.078	231.022
191.127	336.552	226.286	53.291	330.072	231.029
189.513	336.440	226.286	53.347	330.074	231.025
188.048	336.283	226.311	53.397	330.068	231.036
186.469	336.231	226.215	53.463	330.055	231.043
184.847	336.220	226.256	53.503	330.049	231.044
183.400	336.071	226.286	53.560	330.044	231.040
181.796	336.003	226.188	53.610	330.025	231.052
180.199	335.972	226.245	53.651	330.027	231.053
178.796	335.722	226.245	53.652	329.999	231.053
178.495	335.620	226.305	52.387	329.939	231.058
177.892	335.640	226.518	51.462	329.763	231.224
177.486	335.550	226.675	50.552	329.579	231.385
176.875	335.582	226.762	49.662	329.417	231.502
176.467	335.480	226.870	48.770	329.256	231.594
175.856	335.515	226.908	47.868	329.091	231.652
175.460	335.403	226.938	46.972	328.956	231.696
174.854	335.430	226.888	46.078	328.793	231.674
174.405	335.317	226.874	45.183	328.647	231.628
173.848	335.272	226.768	44.285	328.501	231.557
173.265	335.200	226.627	43.409	328.377	231.466
172.857	334.869	226.546	42.516	328.265	231.381
172.298	334.832	226.341	41.678	328.260	231.291
171.994	334.655	226.438	40.844	328.248	231.162
171.576	334.574	226.279	39.999	328.233	231.088
171.281	334.433	226.296	39.174	328.229	230.970
170.828	334.398	226.233	38.268	328.245	230.943
170.475	334.089	226.128	37.370	328.245	230.926
170.084	334.046	226.145	36.473	328.269	230.911
169.551	334.046	226.165	35.569	328.311	230.911
169.155	333.913	226.197	34.683	328.331	230.933
168.662	333.868	226.174	33.804	328.387	230.940
168.301	333.700	226.318	32.921	328.451	230.922
167.831	333.633	226.210	32.035	328.491	230.945
167.443	333.578	226.321	31.169	328.549	230.924
166.935	333.556	226.191	30.296	328.598	230.918
166.584	333.459	226.256	29.424	328.647	230.914
166.080	333.542	226.179	28.572	328.693	230.864
165.751	333.424	226.226	27.699	328.713	230.861
165.302	333.452	226.126	26.835	328.764	230.843
164.922	333.354	226.157	25.967	328.802	230.801
164.544	333.284	226.121	25.102	328.830	230.784
164.114	333.256	226.044	24.215	328.879	230.789
163.757	333.247	226.175	23.356	328.922	230.758
163.265	333.244	226.069	22.463	328.948	230.780
162.938	333.216	226.143	21.574	328.989	230.762
162.408	333.320	226.059	20.685	329.011	230.744
162.052	333.246	226.123	19.800	329.004	230.753
161.597	333.316	226.039	18.915	328.997	230.763
161.173	333.376	226.065	18.044	329.000	230.743
160.821	333.335	226.113	17.161	328.959	230.755
160.349	333.428	226.008	16.284	328.919	230.753
160.020	333.465	226.132	15.415	328.881	230.736
159.543	333.505	225.999	14.534	328.836	230.750
159.224	333.547	226.086	13.650	328.777	230.741
158.764	333.663	226.068	12.760	328.711	230.747
158.385	333.665	226.103	11.886	328.623	230.749
158.006	333.733	226.162	11.010	328.530	230.726
157.529	333.762	226.098	10.143	328.423	230.714
157.216	333.712	226.170	9.279	328.314	230.728
156.697	333.837	226.101	8.412	328.199	230.717
156.362	333.787	226.191	7.553	328.087	230.692
155.851	333.848	226.041	6.697	327.974	230.693
155.475	333.917	226.127	5.841	327.868	230.695
154.956	333.975	226.016	4.982	327.748	230.672
154.597	333.995	226.032	4.116	327.633	230.665
154.136	334.131	226.016	3.252	327.498	230.660
153.718	334.111	226.029	2.384	327.371	230.629
153.367	334.158	226.056	1.512	327.233	230.639
152.892	334.222	226.020	0.648	327.120	230.636
152.555	334.152	226.135	-0.225	327.020	230.623
152.073	334.232	225.997	-1.095	326.908	230.636
151.749	334.219	226.101	-1.955	326.759	230.593
151.258	334.234	226.025	-2.844	326.622	230.588
150.939	334.217	226.065	-3.724	326.485	230.593
150.504	334.273	226.035	-4.590	326.372	230.568
150.095	334.221	226.036	-5.478	326.272	230.565
149.764	334.230	226.064	-6.357	326.164	230.573
149.266	334.328	225.955	-7.238	326.043	230.556
148.929	334.257	226.070	-8.111	325.905	230.549
148.436	334.343	225.922	-8.990	325.781	230.559
148.085	334.355	226.018	-9.849	325.675	230.522
147.622	334.329	225.978	-10.712	325.559	230.528
147.233	334.344	225.980	-11.581	325.466	230.550
146.826	334.376	226.009	-12.431	325.380	230.525
146.365	334.325	225.971	-13.291	325.299	230.559
146.019	334.359	226.028	-14.163	325.239	230.556
145.517	334.360	225.936	-15.017	325.152	230.508
145.189	334.279	226.040	-15.893	325.096	230.548
144.694	334.326	225.910	-16.766	325.049	230.548
144.350	334.247	225.993	-17.635	324.997	230.507
143.873	334.210	225.934	-18.524	324.954	230.514
143.513	334.178	225.972	-19.415	324.949	230.496
143.095	334.144	225.941	-20.269	324.924	230.451
142.703	333.924	225.916	-21.164	324.916	230.476
142.358	333.883	225.975	-22.049	324.919	230.445
141.908	333.837	225.902	-22.919	324.920	230.407
141.575	333.721	226.022	-23.807	324.934	230.418
141.123	333.726	225.924	-24.682	324.951	230.399
140.790	333.656	226.020	-25.550	324.964	230.389
140.321	333.611	225.973	-26.437	324.985	230.403
139.966	333.588	225.973	-27.306	325.009	230.369
139.570	333.543	226.016	-28.179	325.023	230.378
139.110	333.479	225.956	-29.066	325.058	230.393
138.793	333.440	226.025	-29.928	325.075	230.346
138.289	333.418	225.936	-30.807	325.101	230.373
137.954	333.292	226.008	-31.676	325.137	230.342
137.490	333.215	225.898	-32.544	325.153	230.313
137.113	333.075	225.940	-33.437	325.185	230.348
136.680	332.989	225.914	-34.299	325.215	230.304
136.286	332.928	225.887	-35.164	325.230	230.303
135.901	332.864	225.944	-36.049	325.250	230.324
135.445	332.760	225.912	-36.917	325.274	230.299
135.143	332.723	225.954	-37.790	325.281	230.289
134.660	332.668	225.890	-38.678	325.302	230.288
134.338	332.554	226.025	-39.545	325.324	230.264
133.892	332.572	225.915	-40.418	325.352	230.257
133.524	332.485	225.994	-41.288	325.366	230.277
133.088	332.434	225.944	-42.149	325.380	230.239
132.704	332.329	225.910	-43.033	325.385	230.266
132.314	332.234	225.940	-43.908	325.400	230.237
131.854	332.163	225.885	-44.783	325.394	230.208
131.560	332.125	225.938	-45.666	325.385	230.237
131.058	332.111	225.853	-46.549	325.367	230.201
130.708	331.985	225.931	-47.428	325.340	230.190
130.296	331.996	225.841	-48.310	325.311	230.223
129.902	331.935	225.864	-49.176	325.274	230.182
129.490	331.867	225.914	-50.051	325.218	230.200
129.097	331.847	225.823	-50.928	325.172	230.194
128.757	331.770	225.913	-51.784	325.121	230.165
128.275	331.692	225.877	-52.672	325.052	230.192
127.955	331.659	225.923	-53.527	324.987	230.165
127.486	331.647	225.833	-54.386	324.914	230.113
127.113	331.465	225.887	-55.272	324.820	230.143
126.684	331.452	225.801	-56.136	324.717	230.108
126.290	331.390	225.826	-56.997	324.606	230.100
125.858	331.343	225.855	-57.886	324.504	230.107
125.467	331.321	225.790	-58.743	324.412	230.058
125.079	331.338	225.849	-59.628	324.301	230.092
124.606	331.280	225.826	-60.481	324.208	230.071
124.292	331.281	225.858	-61.336	324.103	230.025
123.823	331.308	225.795	-62.227	324.014	230.077
123.446	331.260	225.891	-63.075	323.889	230.041
123.023	331.304	225.791	-63.934	323.764	230.039
122.634	331.311	225.802	-64.807	323.674	230.044
122.194	331.310	225.847	-65.662	323.576	230.002
121.815	331.327	225.778	-66.556	323.471	230.031
121.451	331.345	225.821	-67.416	323.364	230.006
120.986	331.336	225.810	-68.291	323.271	229.989
120.680	331.342	225.853	-69.174	323.168	230.031
120.225	331.392	225.762	-70.043	323.053	229.999
119.849	331.358	225.860	-70.904	322.922	229.976
119.445	331.407	225.809	-71.770	322.821	230.014
119.070	331.422	225.793	-72.627	322.723	229.951
118.667	331.422	225.883	-73.503	322.629	229.980
118.258	331.425	225.823	-74.368	322.542	229.977
117.935	331.440	225.847	-75.206	322.449	229.935
117.446	331.450	225.855	-76.103	322.359	229.990
117.117	331.436	225.893	-76.965	322.274	229.947
116.686	331.495	225.786	-77.839	322.185	229.937
116.270	331.448	225.882	-78.719	322.087	229.944
115.832	331.496	225.815	-79.572	321.992	229.912
115.448	331.514	225.764	-80.442	321.924	229.930
114.982	331.553	225.803	-81.299	321.859	229.917
114.582	331.563	225.756	-82.153	321.784	229.887
114.195	331.616	225.728	-83.044	321.733	229.930
113.751	331.610	225.792	-83.896	321.681	229.901
113.391	331.649	225.797	-84.764	321.648	229.880
112.960	331.686	225.692	-85.640	321.597	229.919
112.561	331.679	225.810	-86.506	321.566	229.856
112.130	331.735	225.730	-87.390	321.530	229.887
111.781	331.729	225.723	-88.283	321.509	229.865
111.323	331.763	225.750	-89.130	321.483	229.824
110.960	331.757	225.773	-90.023	321.461	229.847
110.604	331.792	225.714	-90.891	321.440	229.830
110.185	331.771	225.737	-91.758	321.442	229.814
109.833	331.773	225.820	-92.631	321.412	229.816
109.441	331.792	225.694	-93.484	321.391	229.794
109.066	331.782	225.772	-94.366	321.399	229.787
108.625	331.799	225.773	-95.241	321.385	229.765
108.284	331.770	225.728	-96.118	321.392	229.743
107.842	331.814	225.729	-96.990	321.407	229.748
107.417	331.772	225.768	-97.860	321.392	229.710
107.035	331.819	225.703	-98.747	321.413	229.724
106.596	331.814	225.681	-99.622	321.413	229.705
106.186	331.807	225.766	-100.482	321.420	229.679
105.778	331.831	225.645	-101.359	321.431	229.704
105.386	331.822	225.703	-102.229	321.438	229.670
104.929	331.831	225.709	-103.109	321.451	229.670
104.589	331.786	225.690	-103.984	321.465	229.654
104.144	331.819	225.642	-104.851	321.460	229.623
103.739	331.768	225.730	-105.721	321.475	229.635
103.341	331.782	225.645	-106.590	321.482	229.605
102.972	331.743	225.661	-107.459	321.472	229.618
102.554	331.724	225.737	-108.337	321.487	229.623
102.177	331.699	225.676	-109.205	321.480	229.595
101.823	331.645	225.687	-110.088	321.486	229.618
101.368	331.655	225.696	-110.964	321.489	229.582
101.033	331.575	225.730	-111.836	321.480	229.573
100.626	331.574	225.635	-112.704	321.481	229.591
100.249	331.513	225.733	-113.564	321.482	229.550
99.862	331.475	225.777	-114.432	321.467	229.569
