NO_OF_FRAMES	571
NO_OF_CAMERAS	2
NO_OF_MARKERS	4
FREQUENCY	500
NO_OF_ANALOG	0
ANALOG_FREQUENCY	0
DESCRIPTION	--
TIME_STAMP	2024-11-05, 12:30:26.587	2229954.75187930
DATA_INCLUDED	3D
MARKER_NAMES	New 0000	New 0001	New 0002	New 0003
TRAJECTORY_TYPES	Measured	Measured	Measured	Mixed
168.742	125.249	-13.748	175.985	144.571	-13.466	246.151	308.017	-13.558	270.107	324.396	-13.481
168.838	126.323	-13.752	176.062	145.637	-13.465	246.124	308.016	-13.571	270.099	324.357	-13.495
168.951	127.398	-13.758	176.132	146.711	-13.448	246.098	308.001	-13.584	270.092	324.317	-13.478
169.039	128.458	-13.743	176.250	147.789	-13.356	246.072	307.983	-13.597	270.076	324.269	-13.475
169.152	129.540	-13.750	176.366	148.851	-13.297	246.036	307.982	-13.594	270.067	324.239	-13.490
169.248	130.591	-13.753	176.482	149.894	-13.271	246.010	307.973	-13.607	270.060	324.207	-13.473
169.326	131.656	-13.754	176.570	150.929	-13.257	245.984	307.955	-13.619	270.052	324.175	-13.487
169.413	132.706	-13.772	176.700	151.977	-13.299	245.948	307.963	-13.617	270.035	324.143	-13.486
169.520	133.774	-13.730	176.836	153.032	-13.388	245.930	307.964	-13.647	270.029	324.077	-13.467
169.626	134.840	-13.720	176.964	154.087	-13.460	245.903	307.949	-13.660	270.023	324.036	-13.448
169.723	135.908	-13.691	177.087	155.138	-13.451	245.877	307.948	-13.642	270.015	323.996	-13.463
169.819	136.967	-13.694	177.215	156.209	-13.346	245.860	307.939	-13.640	269.999	323.948	-13.460
169.924	138.034	-13.682	177.304	157.287	-13.265	245.824	307.945	-13.636	269.982	323.894	-13.428
170.028	139.100	-13.703	177.392	158.361	-13.249	245.798	307.938	-13.618	269.975	323.855	-13.411
170.131	140.166	-13.723	177.488	159.418	-13.253	245.781	307.929	-13.616	269.959	323.793	-13.409
170.219	141.217	-13.709	177.567	160.476	-13.221	245.746	307.921	-13.613	269.942	323.754	-13.408
170.317	142.291	-13.682	177.691	161.495	-13.211	245.710	307.927	-13.609	269.926	323.670	-13.375
170.441	143.360	-13.641	177.866	162.539	-13.241	245.685	307.917	-13.590	269.919	323.630	-13.357
170.528	144.435	-13.626	178.038	163.588	-13.304	245.667	307.909	-13.588	269.902	323.599	-13.356
170.634	145.494	-13.614	178.176	164.650	-13.365	245.623	307.916	-13.569	269.893	323.567	-13.371
170.739	146.568	-13.604	178.263	165.739	-13.349	245.580	307.886	-13.549	269.886	323.528	-13.353
170.841	147.624	-13.656	178.332	166.814	-13.330	245.545	307.876	-13.545	269.887	323.488	-13.353
170.930	148.685	-13.609	178.420	167.897	-13.282	245.509	307.875	-13.542	269.870	323.466	-13.351
171.036	149.743	-13.598	178.547	168.942	-13.208	245.466	307.857	-13.522	269.871	323.435	-13.351
171.151	150.810	-13.573	178.672	169.996	-13.133	245.422	307.840	-13.502	269.863	323.389	-13.366
171.264	151.883	-13.580	178.781	171.032	-13.057	245.378	307.839	-13.482	269.864	323.357	-13.365
171.351	152.958	-13.565	178.893	172.097	-13.093	245.333	307.838	-13.494	269.856	323.327	-13.380
171.429	154.023	-13.566	179.030	173.174	-13.154	245.290	307.820	-13.474	269.857	323.294	-13.379
171.534	155.105	-13.555	179.147	174.212	-13.274	245.254	307.806	-13.471	269.840	323.256	-13.378
171.620	156.162	-13.572	179.269	175.268	-13.297	245.193	307.778	-13.451	269.822	323.242	-13.377
171.716	157.227	-13.576	179.411	176.320	-13.258	245.166	307.777	-13.464	269.823	323.204	-13.377
171.839	158.285	-13.568	179.500	177.403	-13.178	245.122	307.761	-13.476	269.809	323.130	-13.373
171.945	159.352	-13.526	179.599	178.463	-13.116	245.086	307.760	-13.473	269.801	323.089	-13.387
172.042	160.426	-13.498	179.695	179.513	-13.117	245.042	307.744	-13.485	269.793	323.052	-13.402
172.120	161.499	-13.497	179.790	180.586	-13.119	245.016	307.728	-13.498	269.767	323.021	-13.416
172.213	162.580	-13.532	179.883	181.680	-13.155	244.980	307.728	-13.495	269.751	322.959	-13.445
172.326	163.645	-13.538	180.012	182.736	-13.195	244.962	307.722	-13.525	269.743	322.934	-13.428
172.413	164.694	-13.555	180.160	183.762	-13.238	244.935	307.712	-13.538	269.718	322.873	-13.442
172.500	165.745	-13.541	180.309	184.787	-13.250	244.900	307.712	-13.535	269.701	322.826	-13.440
172.615	166.811	-13.516	180.451	185.845	-13.213	244.882	307.705	-13.534	269.692	322.783	-13.457
172.729	167.860	-13.523	180.540	186.888	-13.165	244.856	307.696	-13.547	269.675	322.737	-13.456
172.834	168.932	-13.513	180.601	187.944	-13.161	244.838	307.689	-13.545	269.640	322.670	-13.455
172.930	169.982	-13.516	180.697	189.018	-13.131	244.811	307.688	-13.559	269.640	322.634	-13.455
172.998	171.047	-13.530	180.802	190.083	-13.119	244.784	307.688	-13.572	269.623	322.604	-13.455
173.103	172.120	-13.519	180.916	191.157	-13.091	244.766	307.681	-13.571	269.606	322.565	-13.453
173.197	173.200	-13.523	181.064	192.231	-13.101	244.739	307.684	-13.585	269.597	322.536	-13.469
173.302	174.267	-13.510	181.210	193.287	-13.144	244.703	307.670	-13.583	269.589	322.498	-13.484
173.409	175.340	-13.468	181.348	194.333	-13.205	244.686	307.663	-13.581	269.580	322.469	-13.500
173.514	176.405	-13.458	181.433	195.364	-13.255	244.641	307.655	-13.593	269.562	322.439	-13.499
173.610	177.453	-13.463	181.529	196.404	-13.259	244.623	307.664	-13.592	269.554	322.409	-13.514
173.695	178.517	-13.481	181.637	197.448	-13.180	244.588	307.654	-13.589	269.546	322.363	-13.529
173.789	179.574	-13.515	181.744	198.523	-13.103	244.560	307.656	-13.603	269.537	322.341	-13.545
173.894	180.647	-13.505	181.876	199.590	-13.077	244.526	307.646	-13.599	269.530	322.294	-13.559
173.999	181.720	-13.493	181.990	200.655	-13.050	244.489	307.653	-13.627	269.513	322.256	-13.558
174.111	182.779	-13.497	182.092	201.758	-13.070	244.454	307.652	-13.624	269.505	322.217	-13.573
174.226	183.844	-13.472	182.195	202.831	-13.089	244.402	307.648	-13.618	269.508	322.145	-13.570
174.323	184.909	-13.444	182.307	203.872	-13.126	244.367	307.645	-13.614	269.501	322.089	-13.584
174.402	185.959	-13.412	182.449	204.883	-13.118	244.323	307.628	-13.594	269.494	322.034	-13.566
174.472	187.016	-13.394	182.591	205.909	-13.079	244.279	307.620	-13.574	269.480	321.952	-13.594
174.566	188.081	-13.428	182.715	206.943	-13.038	244.235	307.623	-13.585	269.463	321.912	-13.591
174.670	189.155	-13.415	182.811	207.992	-13.039	244.192	307.606	-13.565	269.447	321.887	-13.590
174.800	190.237	-13.423	182.912	209.072	-13.090	244.148	307.589	-13.544	269.439	321.826	-13.573
174.928	191.309	-13.463	183.005	210.160	-13.123	244.105	307.579	-13.524	269.421	321.798	-13.604
175.034	192.359	-13.452	183.127	211.241	-13.114	244.053	307.552	-13.518	269.404	321.737	-13.603
175.131	193.408	-13.423	183.232	212.276	-13.099	244.018	307.551	-13.515	269.387	321.685	-13.602
175.201	194.464	-13.407	183.366	213.326	-13.042	243.991	307.545	-13.529	269.379	321.632	-13.618
175.269	195.513	-13.421	183.498	214.375	-13.019	243.939	307.521	-13.492	269.363	321.571	-13.585
175.348	196.578	-13.389	183.630	215.417	-12.994	243.912	307.511	-13.505	269.346	321.534	-13.584
175.470	197.644	-13.379	183.716	216.449	-13.010	243.886	307.495	-13.486	269.328	321.511	-13.583
175.594	198.717	-13.339	183.819	217.497	-13.062	243.860	307.495	-13.500	269.320	321.465	-13.598
175.724	199.784	-13.346	183.950	218.555	-13.037	243.842	307.485	-13.497	269.313	321.425	-13.580
175.836	200.833	-13.383	184.090	219.620	-13.030	243.815	307.478	-13.511	269.296	321.393	-13.579
175.948	201.897	-13.390	184.222	220.671	-13.003	243.790	307.468	-13.492	269.290	321.344	-13.561
176.024	202.952	-13.422	184.328	221.728	-12.958	243.754	307.468	-13.489	269.281	321.321	-13.575
176.103	204.016	-13.391	184.432	222.800	-12.946	243.737	307.461	-13.488	269.283	321.272	-13.574
176.192	205.074	-13.344	184.526	223.856	-12.980	243.719	307.445	-13.486	269.259	321.221	-13.554
176.298	206.132	-13.300	184.620	224.912	-13.014	243.693	307.436	-13.499	269.243	321.172	-13.551
176.414	207.198	-13.241	184.735	225.954	-12.985	243.665	307.439	-13.513	269.237	321.115	-13.533
176.509	208.255	-13.244	184.894	226.998	-12.947	243.631	307.420	-13.509	269.231	321.071	-13.514
176.619	209.312	-13.312	185.026	228.046	-12.923	243.613	307.426	-13.507	269.224	321.015	-13.527
176.714	210.391	-13.316	185.138	229.110	-12.928	243.586	307.413	-13.521	269.200	320.978	-13.508
176.807	211.455	-13.351	185.241	230.167	-12.947	243.551	307.410	-13.517	269.201	320.940	-13.507
176.902	212.511	-13.354	185.336	231.230	-12.950	243.524	307.412	-13.531	269.175	320.915	-13.489
176.997	213.576	-13.357	185.441	232.287	-12.936	243.488	307.404	-13.559	269.167	320.884	-13.504
177.113	214.634	-13.298	185.546	233.321	-12.922	243.452	307.403	-13.588	269.142	320.866	-13.485
177.219	215.699	-13.254	185.678	234.371	-12.896	243.426	307.403	-13.569	269.116	320.827	-13.467
177.296	216.755	-13.253	185.818	235.452	-12.887	243.381	307.403	-13.613	269.091	320.785	-13.480
177.382	217.819	-13.271	185.940	236.517	-12.876	243.336	307.393	-13.624	269.066	320.697	-13.432
177.467	218.875	-13.289	186.024	237.596	-12.893	243.300	307.393	-13.653	269.031	320.629	-13.430
177.580	219.947	-13.295	186.101	238.629	-12.924	243.256	307.385	-13.665	269.005	320.563	-13.414
177.673	221.011	-13.329	186.220	239.692	-12.979	243.211	307.375	-13.676	268.980	320.531	-13.395
177.777	222.084	-13.317	186.343	240.741	-12.937	243.159	307.358	-13.671	268.972	320.500	-13.378
177.899	223.149	-13.308	186.466	241.775	-12.926	243.123	307.357	-13.668	268.946	320.468	-13.392
178.013	224.207	-13.280	186.581	242.808	-12.898	243.080	307.356	-13.648	268.929	320.444	-13.390
178.099	225.270	-13.299	186.728	243.881	-12.908	243.027	307.345	-13.642	268.912	320.413	-13.389
178.176	226.326	-13.299	186.849	244.954	-12.929	242.984	307.328	-13.622	268.905	320.372	-13.371
178.262	227.366	-13.317	186.925	246.018	-12.959	242.939	307.335	-13.602	268.888	320.364	-13.370
178.376	228.430	-13.290	187.012	247.083	-12.942	242.896	307.318	-13.582	268.871	320.332	-13.368
178.462	229.494	-13.276	187.137	248.124	-12.867	242.853	307.300	-13.529	268.855	320.299	-13.366
178.567	230.551	-13.263	187.268	249.180	-12.842	242.826	307.308	-13.543	268.849	320.240	-13.346
178.672	231.632	-13.220	187.400	250.229	-12.819	242.791	307.293	-13.540	268.853	320.181	-13.312
178.785	232.688	-13.225	187.495	251.245	-12.821	242.765	307.285	-13.522	268.827	320.149	-13.324
178.887	233.768	-13.245	187.606	252.301	-12.858	242.729	307.278	-13.518	268.822	320.074	-13.305
178.981	234.825	-13.280	187.725	253.357	-12.913	242.694	307.261	-13.515	268.805	320.028	-13.303
179.068	235.866	-13.264	187.846	254.416	-12.931	242.658	307.263	-13.512	268.780	319.988	-13.316
179.172	236.914	-13.253	187.987	255.475	-12.921	242.641	307.254	-13.510	268.772	319.964	-13.299
179.285	237.978	-13.259	188.102	256.539	-12.861	242.615	307.240	-13.492	268.746	319.926	-13.313
179.399	239.043	-13.231	188.217	257.603	-12.801	242.580	307.239	-13.489	268.730	319.886	-13.311
179.495	240.115	-13.202	188.312	258.674	-12.771	242.562	307.223	-13.487	268.712	319.849	-13.311
179.599	241.196	-13.189	188.397	259.715	-12.819	242.526	307.223	-13.516	268.686	319.769	-13.327
179.693	242.252	-13.191	188.519	260.756	-12.808	242.508	307.223	-13.514	268.659	319.726	-13.342
179.781	243.301	-13.175	188.657	261.797	-12.832	242.473	307.221	-13.542	268.642	319.674	-13.341
179.867	244.366	-13.160	188.796	262.847	-12.856	242.447	307.220	-13.523	268.615	319.630	-13.356
179.970	245.422	-13.180	188.936	263.897	-12.847	242.411	307.218	-13.551	268.589	319.600	-13.371
180.092	246.494	-13.171	189.066	264.962	-12.853	242.384	307.219	-13.533	268.580	319.564	-13.387
180.205	247.575	-13.143	189.154	266.010	-12.804	242.350	307.199	-13.560	268.554	319.533	-13.401
180.308	248.648	-13.162	189.233	267.066	-12.771	242.323	307.199	-13.573	268.546	319.494	-13.415
180.420	249.720	-13.167	189.316	268.138	-12.819	242.287	307.192	-13.602	268.537	319.472	-13.431
180.507	250.761	-13.152	189.430	269.195	-12.790	242.250	307.199	-13.631	268.520	319.442	-13.461
180.576	251.832	-13.135	189.561	270.274	-12.765	242.206	307.197	-13.642	268.493	319.419	-13.475
180.655	252.872	-13.103	189.717	271.333	-12.791	242.178	307.206	-13.656	268.476	319.373	-13.505
180.758	253.943	-13.092	189.838	272.374	-12.812	242.125	307.180	-13.683	268.461	319.309	-13.503
180.880	255.038	-13.051	189.958	273.422	-12.834	242.098	307.195	-13.696	268.454	319.269	-13.485
180.985	256.111	-13.037	190.069	274.471	-12.872	242.063	307.182	-13.694	268.436	319.232	-13.516
181.086	257.161	-13.088	190.175	275.495	-12.827	242.018	307.182	-13.674	268.420	319.183	-13.513
181.215	258.225	-13.129	190.263	276.527	-12.778	241.974	307.175	-13.686	268.413	319.135	-13.527
181.308	259.282	-13.163	190.378	277.583	-12.717	241.930	307.158	-13.666	268.399	319.058	-13.522
181.376	260.345	-13.146	190.518	278.670	-12.677	241.904	307.156	-13.647	268.392	319.002	-13.536
181.463	261.400	-13.132	190.622	279.750	-12.664	241.852	307.148	-13.610	268.375	318.956	-13.566
181.560	262.455	-13.071	190.724	280.801	-12.713	241.816	307.140	-13.607	268.367	318.918	-13.581
181.684	263.511	-12.998	190.826	281.858	-12.763	241.764	307.123	-13.570	268.349	318.890	-13.612
181.771	264.560	-12.982	190.964	282.892	-12.787	241.730	307.121	-13.535	268.342	318.836	-13.595
181.865	265.625	-13.016	191.094	283.934	-12.793	241.677	307.120	-13.530	268.315	318.814	-13.610
181.966	266.689	-13.068	191.208	284.966	-12.765	241.642	307.111	-13.495	268.306	318.729	-13.627
182.058	267.770	-13.102	191.313	286.005	-12.720	241.597	307.098	-13.507	268.280	318.662	-13.610
182.167	268.827	-13.172	191.417	287.061	-12.707	241.571	307.097	-13.488	268.264	318.595	-13.610
182.262	269.883	-13.175	191.527	288.149	-12.743	241.535	307.101	-13.487	268.238	318.551	-13.593
182.367	270.939	-13.130	191.622	289.207	-12.743	241.491	307.093	-13.467	268.212	318.498	-13.607
182.474	271.994	-13.053	191.726	290.257	-12.760	241.472	307.095	-13.498	268.195	318.475	-13.606
182.570	273.073	-13.024	191.839	291.312	-12.732	241.419	307.085	-13.492	268.160	318.434	-13.602
182.647	274.129	-13.023	191.979	292.362	-12.723	241.385	307.037	-13.459	268.143	318.418	-13.601
182.740	275.178	-13.058	192.100	293.419	-12.712	241.348	307.037	-13.487	268.127	318.378	-13.599
182.824	276.250	-13.075	192.213	294.460	-12.715	241.321	307.046	-13.501	268.101	318.353	-13.580
182.926	277.314	-13.095	192.317	295.516	-12.702	241.286	307.028	-13.529	268.075	318.329	-13.563
183.039	278.372	-13.099	192.418	296.574	-12.752	241.250	307.035	-13.557	268.069	318.286	-13.543
183.188	279.437	-13.077	192.530	297.639	-12.755	241.213	307.028	-13.586	268.053	318.268	-13.541
183.195	280.461	-13.065	192.565	298.633	-12.762	241.249	307.077	-13.588	268.079	318.255	-13.560
182.740	281.273	-13.025	192.290	299.392	-12.656	241.478	307.216	-13.483	268.295	318.368	-13.657
182.432	282.098	-13.056	192.015	300.153	-12.581	241.720	307.364	-13.605	268.526	318.473	-13.545
182.085	282.895	-12.971	191.728	300.937	-12.554	241.996	307.518	-13.760	268.840	318.490	-13.356
181.705	283.703	-13.023	191.403	301.725	-12.616	242.261	307.713	-13.720	269.128	318.503	-13.523
181.337	284.541	-12.997	191.114	302.478	-12.623	242.475	307.786	-13.551	269.397	318.666	-13.686
181.040	285.344	-13.012	190.885	303.285	-12.714	242.640	307.883	-13.491	269.604	318.832	-13.550
180.668	286.151	-13.083	190.571	304.000	-12.731	242.900	308.045	-13.614	269.893	318.892	-13.279
180.301	286.959	-13.055	190.282	304.795	-12.766	243.187	308.202	-13.721	270.130	318.977	-13.311
179.953	287.773	-12.999	189.969	305.540	-12.751	243.470	308.345	-13.589	270.409	319.010	-13.493
179.626	288.574	-13.060	189.725	306.366	-12.745	243.653	308.497	-13.530	270.669	319.114	-13.547
179.237	289.382	-13.127	189.404	307.072	-12.712	243.847	308.596	-13.484	270.953	319.229	-13.343
178.893	290.195	-12.974	189.124	307.874	-12.734	244.090	308.719	-13.572	271.138	319.308	-13.277
178.522	290.972	-13.043	188.813	308.603	-12.685	244.440	308.867	-13.638	271.370	319.391	-13.441
178.195	291.789	-13.103	188.544	309.397	-12.658	244.668	308.977	-13.599	271.683	319.482	-13.594
177.830	292.612	-13.043	188.230	310.142	-12.643	244.842	309.124	-13.553	271.997	319.554	-13.435
177.483	293.393	-12.955	187.939	310.932	-12.741	245.027	309.253	-13.522	272.185	319.638	-13.300
177.106	294.219	-13.120	187.662	311.684	-12.699	245.306	309.402	-13.551	272.395	319.854	-13.375
176.777	295.011	-13.066	187.367	312.471	-12.683	245.655	309.581	-13.616	272.700	319.916	-13.542
176.420	295.832	-12.991	187.063	313.200	-12.653	245.883	309.730	-13.635	273.047	319.939	-13.482
176.033	296.617	-13.024	186.788	313.976	-12.786	246.033	309.797	-13.541	273.289	319.981	-13.320
175.723	297.442	-13.087	186.504	314.727	-12.694	246.217	309.886	-13.450	273.446	320.076	-13.301
175.368	298.225	-13.011	186.208	315.491	-12.710	246.559	310.051	-13.497	273.699	320.122	-13.431
174.990	299.040	-13.030	185.886	316.280	-12.646	246.853	310.253	-13.622	274.062	320.138	-13.439
174.613	299.855	-13.016	185.623	317.024	-12.731	247.056	310.347	-13.591	274.351	320.285	-13.380
174.323	300.673	-13.048	185.320	317.745	-12.700	247.230	310.515	-13.546	274.498	320.405	-13.345
173.930	301.462	-13.000	185.050	318.562	-12.674	247.450	310.631	-13.425	274.679	320.517	-13.344
173.552	302.285	-13.018	184.694	319.306	-12.634	247.765	310.765	-13.455	275.031	320.657	-13.429
173.220	303.077	-12.995	184.427	320.118	-12.723	248.034	310.888	-13.593	275.405	320.771	-13.415
172.903	303.895	-13.039	184.149	320.811	-12.742	248.243	311.031	-13.614	275.571	320.866	-13.379
172.473	304.699	-13.017	183.880	321.612	-12.716	248.426	311.190	-13.553	275.729	320.973	-13.326
172.160	305.522	-12.963	183.540	322.356	-12.679	248.665	311.323	-13.400	276.002	321.035	-13.359
171.787	306.330	-13.033	183.242	323.145	-12.727	248.935	311.446	-13.473	276.402	321.012	-13.335
171.426	307.146	-13.053	182.963	323.883	-12.716	249.220	311.632	-13.644	276.665	321.091	-13.385
171.061	307.944	-12.991	182.701	324.678	-12.738	249.439	311.792	-13.647	276.804	321.187	-13.363
170.763	308.753	-13.005	182.377	325.438	-12.737	249.616	311.872	-13.476	276.997	321.253	-13.345
170.345	309.561	-13.082	182.038	326.196	-12.760	249.837	311.954	-13.385	277.367	321.311	-13.337
170.014	310.369	-13.058	181.778	326.917	-12.720	250.122	312.140	-13.523	277.680	321.437	-13.456
169.666	311.166	-12.999	181.505	327.731	-12.787	250.371	312.341	-13.691	277.846	321.632	-13.479
169.282	311.993	-13.112	181.162	328.506	-12.784	250.592	312.446	-13.662	277.977	321.784	-13.377
168.942	312.800	-13.071	180.850	329.255	-12.794	250.832	312.572	-13.476	278.287	321.901	-13.314
168.601	313.576	-13.061	180.566	329.973	-12.702	251.032	312.727	-13.418	278.659	321.935	-13.335
168.215	314.406	-13.060	180.312	330.749	-12.772	251.293	312.814	-13.538	278.902	322.007	-13.480
167.854	315.215	-13.079	179.977	331.527	-12.816	251.562	312.944	-13.674	279.060	322.092	-13.427
167.540	316.015	-13.057	179.664	332.289	-12.797	251.790	313.086	-13.599	279.292	322.107	-13.312
167.143	316.813	-13.072	179.363	332.992	-12.701	252.010	313.258	-13.477	279.656	322.125	-13.253
166.792	317.638	-13.076	179.132	333.814	-12.793	252.202	313.389	-13.433	279.944	322.205	-13.415
166.461	318.429	-13.051	178.788	334.533	-12.882	252.456	313.484	-13.533	280.144	322.327	-13.476
166.106	319.253	-13.089	178.513	335.292	-12.805	252.766	313.724	-13.689	280.321	322.388	-13.359
165.712	320.043	-13.071	178.203	336.017	-12.691	253.031	313.860	-13.555	280.621	322.463	-13.188
165.406	320.883	-13.065	177.922	336.821	-12.742	253.189	313.922	-13.444	280.918	322.716	-13.330
165.039	321.658	-13.035	177.602	337.588	-12.851	253.391	314.050	-13.415	281.161	322.884	-13.505
164.665	322.530	-13.101	177.341	338.343	-12.841	253.676	314.229	-13.552	281.362	322.958	-13.439
164.301	323.294	-13.005	177.015	339.089	-12.692	253.981	314.412	-13.627	281.621	322.986	-13.214
164.007	324.130	-13.100	176.698	339.879	-12.768	254.211	314.548	-13.550	281.903	323.054	-13.231
163.578	324.925	-13.043	176.415	340.630	-12.851	254.403	314.690	-13.473	282.172	323.149	-13.424
163.255	325.761	-13.064	176.136	341.419	-12.868	254.570	314.774	-13.409	282.417	323.250	-13.502
162.906	326.555	-12.974	175.827	342.157	-12.722	254.874	314.914	-13.487	282.652	323.240	-13.320
162.550	327.370	-13.103	175.496	342.923	-12.761	255.207	315.071	-13.577	282.917	323.284	-13.146
