NO_OF_FRAMES	442
NO_OF_CAMERAS	2
NO_OF_MARKERS	4
FREQUENCY	500
NO_OF_ANALOG	0
ANALOG_FREQUENCY	0
DESCRIPTION	--
TIME_STAMP	2024-11-05, 13:35:42.369	2233870.51631420
DATA_INCLUDED	3D
MARKER_NAMES	New 0000	New 0001	New 0002	New 0003
TRAJECTORY_TYPES	Measured	Measured	Measured	Measured
323.018	337.621	-11.448	329.287	317.797	-11.455	338.738	472.533	-6.792	294.886	480.245	-7.122
323.113	339.018	-11.453	329.191	319.095	-11.390	338.710	472.554	-6.777	294.849	480.283	-7.122
323.208	340.364	-11.523	329.148	320.366	-11.422	338.684	472.571	-6.793	294.821	480.312	-7.106
323.331	341.693	-11.543	329.021	321.698	-11.475	338.646	472.594	-6.795	294.801	480.343	-7.107
323.426	343.051	-11.549	328.942	323.013	-11.442	338.610	472.601	-6.795	294.773	480.367	-7.122
323.560	344.363	-11.520	328.836	324.319	-11.393	338.573	472.624	-6.796	294.745	480.388	-7.106
323.666	345.736	-11.506	328.746	325.654	-11.477	338.545	472.646	-6.781	294.727	480.419	-7.106
323.752	347.142	-11.526	328.648	326.971	-11.509	338.518	472.670	-6.798	294.689	480.450	-7.106
323.858	348.470	-11.512	328.542	328.268	-11.431	338.482	472.685	-6.798	294.662	480.471	-7.090
323.953	349.838	-11.550	328.443	329.593	-11.465	338.454	472.702	-6.816	294.625	480.493	-7.089
324.058	351.182	-11.571	328.338	330.909	-11.480	338.426	472.724	-6.801	294.587	480.516	-7.089
324.166	352.506	-11.491	328.257	332.201	-11.451	338.391	472.746	-6.801	294.551	480.531	-7.088
324.253	353.888	-11.479	328.150	333.581	-11.499	338.364	472.775	-6.785	294.524	480.547	-7.103
324.343	355.260	-11.430	328.063	334.881	-11.482	338.338	472.804	-6.769	294.488	480.578	-7.102
324.438	356.698	-11.466	328.001	336.165	-11.452	338.302	472.835	-6.769	294.472	480.593	-7.101
324.526	358.035	-11.486	327.832	337.583	-11.322	338.284	472.858	-6.769	294.444	480.618	-7.116
324.653	359.370	-11.469	327.788	338.874	-11.419	338.249	472.880	-6.769	294.418	480.639	-7.099
324.782	360.616	-11.510	327.681	340.180	-11.374	338.221	472.905	-6.786	294.381	480.665	-7.130
324.896	361.981	-11.481	327.565	341.555	-11.309	338.194	472.934	-6.771	294.364	480.696	-7.129
324.985	363.347	-11.467	327.477	342.867	-11.391	338.167	472.951	-6.787	294.337	480.736	-7.144
325.086	364.733	-11.523	327.369	344.164	-11.313	338.139	472.972	-6.772	294.319	480.767	-7.144
325.178	366.161	-11.504	327.244	345.539	-11.266	338.103	472.995	-6.773	294.284	480.797	-7.142
325.273	367.575	-11.508	327.145	346.859	-11.332	338.076	473.008	-6.757	294.266	480.852	-7.141
325.421	368.777	-11.459	327.083	348.168	-11.334	338.039	473.031	-6.758	294.230	480.882	-7.140
325.511	370.072	-11.412	326.957	349.592	-11.319	338.020	473.054	-6.759	294.201	480.922	-7.156
325.557	371.461	-11.438	326.887	350.910	-11.335	337.993	473.083	-6.744	294.174	480.951	-7.140
325.629	372.889	-11.422	326.796	352.243	-11.354	337.964	473.108	-6.761	294.147	480.984	-7.155
325.696	374.236	-11.443	326.707	353.653	-11.370	337.936	473.130	-6.746	294.127	481.014	-7.155
325.851	375.683	-11.466	326.601	355.008	-11.354	337.909	473.162	-6.763	294.098	481.047	-7.172
326.064	377.004	-11.428	326.528	356.304	-11.405	337.880	473.195	-6.780	294.062	481.069	-7.171
326.177	378.339	-11.528	326.410	357.774	-11.375	337.862	473.218	-6.781	294.043	481.092	-7.171
326.269	379.552	-11.539	326.286	359.092	-11.392	337.834	473.250	-6.797	294.013	481.132	-7.187
326.330	380.955	-11.509	326.222	360.395	-11.427	337.798	473.273	-6.798	293.976	481.155	-7.187
326.355	382.352	-11.512	326.086	361.865	-11.397	337.779	473.304	-6.799	293.948	481.180	-7.202
326.415	383.717	-11.451	326.016	363.160	-11.414	337.761	473.335	-6.799	293.930	481.211	-7.202
326.537	384.974	-11.417	325.933	364.526	-11.449	337.725	473.350	-6.799	293.904	481.235	-7.217
326.673	386.346	-11.352	325.816	365.959	-11.450	337.708	473.381	-6.799	293.885	481.258	-7.217
326.822	387.781	-11.291	325.717	367.271	-11.356	337.682	473.405	-6.815	293.848	481.281	-7.216
326.959	389.121	-11.443	325.582	368.634	-11.359	337.655	473.422	-6.831	293.822	481.310	-7.199
327.063	390.494	-11.527	325.495	370.028	-11.341	337.629	473.447	-6.846	293.795	481.342	-7.214
327.141	391.854	-11.530	325.341	371.399	-11.217	337.594	473.462	-6.847	293.768	481.371	-7.197
327.244	393.184	-11.527	325.255	372.785	-11.326	337.566	473.494	-6.863	293.740	481.396	-7.213
327.319	394.479	-11.479	325.161	374.102	-11.195	337.531	473.517	-6.863	293.713	481.424	-7.196
327.416	395.863	-11.481	325.016	375.478	-11.272	337.495	473.540	-6.864	293.687	481.457	-7.211
327.512	397.191	-11.453	324.988	376.877	-11.312	337.467	473.565	-6.881	293.658	481.478	-7.195
327.590	398.508	-11.394	324.846	378.297	-11.353	337.431	473.572	-6.881	293.630	481.514	-7.179
327.508	398.665	-11.441	324.648	378.439	-11.448	337.401	473.655	-6.867	293.621	481.602	-7.195
327.294	397.805	-11.506	324.260	377.505	-11.379	337.389	473.809	-6.853	293.627	481.799	-7.212
327.021	396.830	-11.417	323.803	376.656	-11.333	337.386	473.972	-6.854	293.635	481.984	-7.196
326.717	395.919	-11.451	323.526	375.801	-11.507	337.383	474.144	-6.855	293.621	482.153	-7.183
326.485	395.071	-11.483	323.015	374.922	-11.244	337.380	474.315	-6.857	293.605	482.284	-7.171
326.273	394.224	-11.513	322.590	374.086	-11.391	337.374	474.463	-6.860	293.582	482.400	-7.173
326.001	393.218	-11.424	322.198	373.247	-11.357	337.379	474.609	-6.847	293.568	482.538	-7.159
325.680	392.266	-11.425	321.728	372.292	-11.236	337.347	474.755	-6.833	293.575	482.728	-7.176
325.449	391.418	-11.457	321.406	371.404	-11.395	337.344	474.926	-6.834	293.592	482.915	-7.177
325.217	390.513	-11.457	321.000	370.454	-11.325	337.333	475.087	-6.819	293.582	483.100	-7.161
324.921	389.554	-11.476	320.566	369.568	-11.297	337.340	475.245	-6.836	293.564	483.230	-7.150
324.642	388.656	-11.463	320.151	368.782	-11.368	337.335	475.408	-6.839	293.550	483.353	-7.137
324.406	387.798	-11.467	319.743	367.933	-11.299	337.329	475.556	-6.842	293.528	483.485	-7.138
324.157	386.893	-11.466	319.310	367.085	-11.396	337.314	475.710	-6.829	293.524	483.641	-7.140
323.863	385.929	-11.515	318.928	366.230	-11.344	337.293	475.866	-6.831	293.531	483.830	-7.157
323.621	385.023	-11.501	318.547	365.302	-11.381	337.282	476.027	-6.816	293.530	484.029	-7.189
323.368	384.148	-11.471	318.113	364.432	-11.357	337.279	476.182	-6.817	293.523	484.173	-7.161
323.074	383.204	-11.487	317.745	363.488	-11.374	337.275	476.357	-6.851	293.498	484.305	-7.164
322.816	382.287	-11.534	317.304	362.615	-11.455	337.268	476.513	-6.855	293.466	484.435	-7.150
322.591	381.454	-11.552	316.870	361.820	-11.365	337.263	476.654	-6.858	293.462	484.568	-7.152
322.305	380.500	-11.521	316.486	360.945	-11.379	337.233	476.807	-6.844	293.459	484.739	-7.154
321.983	379.524	-11.522	316.030	360.071	-11.422	337.221	476.976	-6.830	293.475	484.938	-7.186
321.750	378.684	-11.554	315.654	359.246	-11.355	337.218	477.132	-6.831	293.464	485.131	-7.172
321.544	377.828	-11.570	315.293	358.342	-11.547	337.215	477.299	-6.864	293.438	485.263	-7.175
321.249	376.887	-11.618	314.840	357.502	-11.491	337.209	477.455	-6.867	293.424	485.378	-7.162
320.933	375.906	-11.543	314.463	356.591	-11.426	337.204	477.610	-6.870	293.392	485.508	-7.148
320.692	375.034	-11.557	314.068	355.754	-11.551	337.189	477.764	-6.857	293.388	485.672	-7.150
320.460	374.141	-11.621	313.622	354.915	-11.385	337.169	477.939	-6.827	293.403	485.847	-7.184
320.165	373.212	-11.605	313.256	354.020	-11.460	337.157	478.085	-6.812	293.403	486.050	-7.183
319.903	372.304	-11.559	312.807	353.193	-11.520	337.153	478.245	-6.846	293.397	486.202	-7.155
319.661	371.430	-11.544	312.413	352.311	-11.390	337.166	478.428	-6.880	293.363	486.324	-7.142
319.421	370.540	-11.653	312.081	351.475	-11.528	337.161	478.568	-6.883	293.348	486.455	-7.129
319.124	369.632	-11.607	311.634	350.643	-11.490	337.136	478.724	-6.823	293.344	486.603	-7.131
318.855	368.717	-11.575	311.223	349.732	-11.421	337.107	478.901	-6.809	293.331	486.784	-7.148
318.597	367.815	-11.621	310.810	348.940	-11.544	337.104	479.064	-6.810	293.348	486.991	-7.181
318.346	366.913	-11.652	310.405	348.046	-11.494	337.100	479.223	-6.844	293.325	487.174	-7.151
318.086	366.015	-11.637	310.041	347.209	-11.469	337.103	479.397	-6.863	293.309	487.296	-7.139
317.852	365.126	-11.637	309.637	346.441	-11.606	337.106	479.555	-6.882	293.285	487.420	-7.141
317.541	364.193	-11.682	309.216	345.452	-11.524	337.084	479.699	-6.853	293.272	487.566	-7.128
317.263	363.263	-11.666	308.832	344.693	-11.530	337.064	479.874	-6.822	293.259	487.708	-7.145
317.012	362.357	-11.634	308.409	343.877	-11.636	337.042	480.029	-6.824	293.266	487.898	-7.162
316.762	361.449	-11.696	308.043	342.921	-11.584	337.039	480.177	-6.825	293.264	488.100	-7.163
316.503	360.578	-11.741	307.605	342.154	-11.590	337.045	480.346	-6.875	293.249	488.246	-7.150
316.216	359.621	-11.646	307.211	341.278	-11.584	337.040	480.494	-6.877	293.216	488.361	-7.136
315.974	358.748	-11.662	306.835	340.403	-11.578	337.026	480.656	-6.864	293.204	488.499	-7.122
315.700	357.823	-11.704	306.413	339.693	-11.647	336.996	480.821	-6.818	293.190	488.637	-7.108
315.458	356.923	-11.782	306.019	338.752	-11.579	336.993	480.969	-6.819	293.189	488.797	-7.141
315.152	356.003	-11.656	305.661	337.877	-11.573	336.990	481.132	-6.821	293.197	489.002	-7.157
314.903	355.068	-11.653	305.231	337.104	-11.626	336.987	481.284	-6.854	293.182	489.168	-7.112
314.634	354.215	-11.746	304.836	336.264	-11.556	336.981	481.440	-6.857	293.159	489.300	-7.114
314.410	353.312	-11.761	304.479	335.431	-11.610	336.967	481.617	-6.844	293.144	489.446	-7.101
314.105	352.339	-11.666	304.038	334.617	-11.619	336.945	481.792	-6.814	293.130	489.576	-7.088
313.827	351.474	-11.679	303.653	333.755	-11.565	336.951	481.954	-6.800	293.127	489.732	-7.089
313.614	350.598	-11.739	303.286	332.898	-11.635	336.928	482.101	-6.802	293.133	489.929	-7.107
313.371	349.694	-11.755	302.880	332.139	-11.645	336.933	482.259	-6.820	293.121	490.145	-7.092
313.058	348.788	-11.736	302.478	331.277	-11.588	336.928	482.415	-6.823	293.095	490.269	-7.096
312.754	347.825	-11.671	302.100	330.428	-11.677	336.922	482.602	-6.827	293.080	490.415	-7.083
312.539	346.962	-11.701	301.705	329.636	-11.636	336.891	482.779	-6.813	293.066	490.561	-7.070
312.296	346.060	-11.748	301.303	328.775	-11.609	336.886	482.946	-6.783	293.061	490.686	-7.072
312.001	345.179	-11.760	300.931	327.997	-11.717	336.873	483.088	-6.802	293.068	490.887	-7.120
311.750	344.266	-11.726	300.528	327.197	-11.658	336.869	483.244	-6.804	293.055	491.103	-7.106
311.507	343.355	-11.742	300.119	326.320	-11.613	336.864	483.408	-6.806	293.032	491.251	-7.109
311.194	342.441	-11.723	299.747	325.470	-11.690	336.856	483.580	-6.811	293.017	491.393	-7.064
310.927	341.522	-11.750	299.362	324.698	-11.726	336.827	483.748	-6.796	293.002	491.516	-7.051
310.685	340.624	-11.701	298.978	323.867	-11.666	336.824	483.916	-6.766	292.989	491.634	-7.068
310.444	339.745	-11.745	298.589	323.056	-11.740	336.811	484.058	-6.783	292.995	491.808	-7.086
310.168	338.851	-11.787	298.188	322.196	-11.742	336.800	484.207	-6.801	292.993	492.038	-7.119
309.900	337.908	-11.784	297.805	321.346	-11.587	336.796	484.363	-6.803	292.973	492.206	-7.088
309.639	336.993	-11.735	297.397	320.576	-11.724	336.791	484.511	-6.805	292.950	492.330	-7.089
309.354	336.048	-11.700	297.030	319.773	-11.758	336.767	484.679	-6.777	292.928	492.443	-7.060
309.050	335.137	-11.728	296.674	318.941	-11.650	336.757	484.844	-6.793	292.920	492.575	-7.063
308.834	334.275	-11.788	296.258	318.109	-11.802	336.752	484.996	-6.764	292.907	492.709	-7.081
308.610	333.403	-11.801	295.918	317.256	-11.760	336.740	485.138	-6.781	292.924	492.916	-7.114
308.299	332.483	-11.811	295.487	316.464	-11.716	336.726	485.303	-6.800	292.912	493.141	-7.099
307.995	331.524	-11.807	295.090	315.677	-11.834	336.721	485.459	-6.803	292.889	493.280	-7.101
307.752	330.611	-11.791	294.814	314.797	-11.839	336.705	485.621	-6.791	292.865	493.405	-7.104
307.519	329.732	-11.818	294.310	314.072	-11.761	336.683	485.792	-6.793	292.849	493.535	-7.091
307.224	328.829	-11.862	293.976	313.223	-11.834	336.671	485.953	-6.779	292.835	493.662	-7.109
306.938	327.915	-11.826	293.662	312.370	-11.776	336.657	486.119	-6.797	292.830	493.825	-7.112
306.705	327.043	-11.821	293.139	311.694	-11.793	336.653	486.275	-6.799	292.827	494.055	-7.145
306.444	326.149	-11.899	292.835	310.822	-11.813	336.647	486.438	-6.803	292.815	494.264	-7.130
306.167	325.221	-11.879	292.521	309.949	-11.852	336.639	486.587	-6.807	292.791	494.373	-7.133
305.889	324.297	-11.796	292.034	309.226	-11.838	336.609	486.763	-6.793	292.777	494.503	-7.119
305.630	323.394	-11.808	291.712	308.388	-11.764	336.599	486.933	-6.778	292.762	494.633	-7.106
305.380	322.533	-11.896	291.370	307.547	-11.849	336.594	487.088	-6.780	292.748	494.776	-7.124
305.121	321.623	-11.939	290.885	306.808	-11.801	336.582	487.246	-6.798	292.753	494.981	-7.142
304.810	320.658	-11.790	290.581	305.976	-11.850	336.569	487.403	-6.816	292.753	495.207	-7.142
304.541	319.809	-11.817	290.248	305.143	-11.951	336.572	487.550	-6.803	292.733	495.339	-7.143
304.335	318.888	-11.956	289.832	304.413	-11.908	336.542	487.719	-6.789	292.719	495.462	-7.129
304.076	317.950	-11.871	289.474	303.646	-11.860	336.531	487.896	-6.774	292.705	495.576	-7.116
303.754	317.096	-11.802	289.108	302.733	-11.895	336.529	488.043	-6.774	292.702	495.717	-7.117
303.496	316.119	-11.907	288.685	301.919	-11.898	336.526	488.184	-6.776	292.697	495.904	-7.120
303.274	315.223	-11.885	288.309	301.128	-11.849	336.513	488.341	-6.794	292.687	496.124	-7.136
303.003	314.398	-11.944	288.019	300.374	-11.934	336.507	488.497	-6.797	292.667	496.280	-7.136
302.693	313.397	-11.857	287.595	299.558	-11.908	336.485	488.665	-6.767	292.653	496.403	-7.122
302.434	312.486	-11.867	287.255	298.809	-11.889	336.474	488.841	-6.753	292.648	496.527	-7.125
302.200	311.670	-11.925	286.931	297.944	-11.974	336.471	488.993	-6.786	292.626	496.652	-7.127
301.961	310.681	-11.903	286.491	297.158	-11.879	336.468	489.141	-6.787	292.613	496.798	-7.113
301.628	309.767	-11.915	286.124	296.331	-11.912	336.455	489.291	-6.805	292.627	497.028	-7.147
301.369	308.925	-11.891	285.807	295.574	-11.947	336.441	489.437	-6.792	292.598	497.229	-7.131
301.146	307.989	-11.838	285.402	294.767	-11.919	336.427	489.614	-6.779	292.594	497.338	-7.133
300.903	307.091	-12.010	285.069	294.002	-11.920	336.414	489.791	-6.765	292.580	497.476	-7.119
300.600	306.207	-11.937	284.719	293.245	-11.950	336.411	489.955	-6.767	292.567	497.607	-7.105
300.289	305.261	-11.850	284.331	292.463	-11.986	336.408	490.111	-6.768	292.552	497.757	-7.124
300.100	304.345	-11.927	283.964	291.626	-11.953	336.394	490.268	-6.787	292.549	497.952	-7.125
299.850	303.481	-11.950	283.648	290.839	-11.988	336.390	490.409	-6.789	292.547	498.170	-7.127
299.493	302.551	-11.910	283.225	290.093	-11.956	336.366	490.576	-6.760	292.524	498.310	-7.128
299.287	301.617	-11.923	282.883	289.203	-11.977	336.363	490.755	-6.762	292.519	498.435	-7.131
299.011	300.736	-11.897	282.550	288.468	-11.945	336.360	490.926	-6.763	292.507	498.573	-7.116
298.741	299.858	-11.987	282.197	287.680	-12.045	336.347	491.084	-6.781	292.494	498.715	-7.134
298.509	298.916	-11.981	281.814	286.857	-11.913	336.344	491.240	-6.782	292.480	498.869	-7.120
298.188	298.038	-11.845	281.504	286.110	-12.029	336.322	491.387	-6.785	292.486	499.105	-7.138
297.964	297.146	-11.950	281.107	285.391	-12.075	336.309	491.557	-6.771	292.456	499.282	-7.123
297.687	296.228	-12.022	280.759	284.560	-11.947	336.285	491.728	-6.774	292.452	499.399	-7.125
297.392	295.314	-11.967	280.442	283.741	-12.015	336.283	491.892	-6.775	292.430	499.547	-7.127
297.160	294.411	-11.959	280.046	283.038	-12.059	336.280	492.055	-6.777	292.418	499.682	-7.143
296.830	293.490	-11.966	279.678	282.215	-11.963	336.267	492.213	-6.795	292.396	499.829	-7.145
296.615	292.597	-12.056	279.344	281.443	-12.029	336.255	492.362	-6.812	292.402	500.042	-7.163
296.373	291.709	-12.032	279.017	280.686	-12.079	336.233	492.510	-6.814	292.371	500.251	-7.148
296.053	290.762	-11.928	278.616	279.894	-11.978	336.218	492.695	-6.802	292.365	500.367	-7.151
295.802	289.893	-12.047	278.281	279.090	-12.045	336.207	492.857	-6.787	292.353	500.490	-7.136
295.551	288.975	-12.103	277.946	278.326	-12.141	336.202	493.020	-6.789	292.339	500.632	-7.154
295.275	288.060	-11.985	277.615	277.544	-12.011	336.190	493.186	-6.807	292.327	500.782	-7.171
295.015	287.165	-12.025	277.219	276.753	-12.026	336.177	493.336	-6.825	292.314	500.972	-7.189
294.703	286.260	-12.031	276.908	276.005	-12.174	336.163	493.486	-6.844	292.311	501.206	-7.191
294.497	285.343	-12.072	276.595	275.216	-12.108	336.158	493.638	-6.815	292.288	501.334	-7.161
294.238	284.439	-12.049	276.190	274.440	-12.042	336.136	493.828	-6.785	292.274	501.456	-7.147
293.934	283.518	-12.039	275.864	273.667	-12.124	336.132	493.984	-6.787	292.269	501.581	-7.150
293.657	282.615	-12.079	275.591	272.896	-12.206	336.128	494.152	-6.821	292.246	501.741	-7.184
293.407	281.718	-12.039	275.145	272.118	-12.023	336.115	494.317	-6.839	292.242	501.905	-7.185
293.183	280.822	-12.016	274.880	271.370	-12.124	336.092	494.458	-6.842	292.237	502.123	-7.188
292.878	279.903	-12.104	274.555	270.597	-12.141	336.094	494.604	-6.829	292.226	502.308	-7.173
292.585	279.013	-12.013	274.204	269.806	-12.109	336.072	494.771	-6.800	292.212	502.415	-7.160
292.378	278.103	-12.056	273.835	269.071	-12.072	336.059	494.948	-6.786	292.187	502.555	-7.162
292.128	277.193	-12.110	273.572	268.268	-12.108	336.046	495.114	-6.805	292.165	502.696	-7.164
291.797	276.310	-12.052	273.219	267.533	-12.139	336.042	495.297	-6.838	292.152	502.853	-7.182
291.539	275.390	-12.058	272.815	266.695	-12.105	336.029	495.428	-6.824	292.144	503.048	-7.186
291.315	274.488	-12.066	272.534	265.986	-12.135	336.015	495.585	-6.843	292.144	503.251	-7.186
291.055	273.585	-12.138	272.245	265.159	-12.184	335.991	495.737	-6.815	292.133	503.405	-7.171
290.752	272.672	-12.126	271.832	264.414	-12.131	335.989	495.916	-6.816	292.109	503.510	-7.141
290.467	271.774	-12.020	271.532	263.689	-12.162	335.977	496.078	-6.801	292.077	503.644	-7.159
290.252	270.856	-12.078	271.235	262.870	-12.161	335.973	496.261	-6.835	292.065	503.794	-7.176
289.965	269.977	-12.162	270.875	262.079	-12.176	335.952	496.409	-6.836	292.052	503.976	-7.194
289.680	269.041	-12.119	270.531	261.375	-12.158	335.948	496.541	-6.839	292.059	504.197	-7.211
289.413	268.145	-12.075	270.259	260.612	-12.204	335.925	496.693	-6.810	292.042	504.364	-7.178
289.164	267.217	-12.033	269.899	259.814	-12.187	335.906	496.872	-6.810	292.036	504.469	-7.150
288.903	266.331	-12.200	269.602	259.010	-12.186	335.910	497.034	-6.797	292.003	504.591	-7.136
288.645	265.396	-12.173	269.266	258.346	-12.182	335.898	497.222	-6.814	291.981	504.743	-7.169
288.343	264.514	-12.030	268.931	257.580	-12.245	335.877	497.362	-6.816	291.969	504.913	-7.154
288.091	263.603	-12.120	268.618	256.744	-12.179	335.873	497.495	-6.818	291.973	505.126	-7.173
287.831	262.699	-12.190	268.347	255.949	-12.162	335.848	497.655	-6.790	291.966	505.327	-7.156
287.581	261.811	-12.147	267.992	255.292	-12.223	335.827	497.834	-6.792	291.958	505.436	-7.160
287.287	260.914	-12.055	267.641	254.524	-12.158	335.814	498.003	-6.778	291.923	505.573	-7.147
287.027	260.018	-12.094	267.379	253.682	-12.191	335.809	498.175	-6.781	291.893	505.703	-7.132
286.758	259.090	-12.182	267.072	252.973	-12.170	335.797	498.340	-6.798	291.887	505.860	-7.135
286.527	258.171	-12.139	266.743	252.260	-12.283	335.792	498.480	-6.801	291.881	506.059	-7.170
286.234	257.290	-12.013	266.385	251.455	-12.166	335.757	498.634	-6.790	291.889	506.256	-7.187
285.946	256.393	-12.132	266.168	250.628	-12.187	335.744	498.796	-6.776	291.878	506.422	-7.140
285.687	255.458	-12.138	265.831	249.973	-12.213	335.732	498.973	-6.762	291.843	506.536	-7.128
285.472	254.548	-12.192	265.452	249.205	-12.256	335.709	499.137	-6.765	291.819	506.668	-7.130
285.205	253.676	-12.114	265.201	248.386	-12.146	335.706	499.292	-6.766	291.805	506.806	-7.116
284.873	252.793	-12.150	264.942	247.652	-12.327	335.702	499.437	-6.800	291.790	506.980	-7.135
284.633	251.835	-12.189	264.575	246.895	-12.283	335.677	499.593	-6.804	291.796	507.154	-7.152
