NO_OF_FRAMES	211
NO_OF_CAMERAS	2
NO_OF_MARKERS	4
FREQUENCY	500
NO_OF_ANALOG	0
ANALOG_FREQUENCY	0
DESCRIPTION	--
TIME_STAMP	2024-11-05, 14:12:50.828	2236098.96630470
DATA_INCLUDED	3D
MARKER_NAMES	New 0000	New 0001	New 0002	New 0003
TRAJECTORY_TYPES	Mixed	Measured	Measured	Measured
181.742	156.335	-15.837	161.557	116.667	-16.486	385.767	365.409	-14.481	427.745	354.310	-14.235
183.428	157.984	-15.827	162.938	118.544	-16.425	385.820	365.418	-14.479	427.807	354.311	-14.246
185.156	159.628	-15.727	164.269	120.341	-16.426	385.882	365.426	-14.459	427.860	354.320	-14.240
186.900	161.291	-15.801	165.602	122.227	-16.436	385.943	365.441	-14.441	427.921	354.319	-14.219
188.546	162.950	-15.728	166.969	124.076	-16.373	386.022	365.490	-14.452	427.983	354.322	-14.230
190.330	164.609	-15.704	168.313	125.947	-16.366	386.101	365.582	-14.430	428.045	354.331	-14.240
192.051	166.232	-15.751	169.677	127.776	-16.363	386.181	365.631	-14.442	428.106	354.346	-14.219
193.730	167.913	-15.707	171.023	129.657	-16.320	386.251	365.655	-14.438	428.168	354.340	-14.229
195.479	169.563	-15.701	172.400	131.541	-16.346	386.330	365.680	-14.451	428.237	354.339	-14.191
197.186	171.198	-15.640	173.778	133.440	-16.371	386.392	365.682	-14.464	428.300	354.348	-14.201
198.889	172.861	-15.670	175.157	135.301	-16.394	386.461	365.691	-14.462	428.371	354.359	-14.227
200.620	174.526	-15.654	176.495	137.173	-16.327	386.523	365.675	-14.444	428.442	354.362	-14.252
202.346	176.186	-15.552	177.864	139.031	-16.216	386.585	365.669	-14.457	428.513	354.370	-14.245
204.040	177.850	-15.556	179.199	140.907	-16.211	386.655	365.647	-14.454	428.575	354.387	-14.255
205.744	179.482	-15.573	180.569	142.792	-16.208	386.726	365.656	-14.451	428.654	354.389	-14.265
207.495	181.148	-15.516	181.965	144.734	-16.189	386.796	365.664	-14.448	428.724	354.398	-14.258
209.181	182.796	-15.524	183.323	146.633	-16.229	386.858	365.690	-14.460	428.796	354.408	-14.283
210.902	184.452	-15.536	184.762	148.549	-16.263	386.919	365.706	-14.441	428.867	354.409	-14.277
212.635	186.126	-15.466	186.149	150.466	-16.254	386.989	365.745	-14.438	428.937	354.417	-14.270
214.355	187.765	-15.533	187.504	152.336	-16.208	387.058	365.770	-14.435	428.998	354.425	-14.247
216.061	189.422	-15.470	188.897	154.215	-16.103	387.138	365.812	-14.447	429.051	354.418	-14.243
217.802	191.071	-15.440	190.235	156.084	-16.050	387.218	365.852	-14.458	429.114	354.419	-14.252
219.490	192.704	-15.399	191.623	158.000	-16.035	387.287	365.877	-14.455	429.174	354.427	-14.231
221.203	194.368	-15.407	193.038	159.926	-15.973	387.358	365.893	-14.451	429.237	354.428	-14.241
222.960	196.032	-15.400	194.438	161.846	-16.082	387.438	365.895	-14.463	429.289	354.429	-14.236
224.622	197.673	-15.332	195.877	163.794	-16.068	387.498	365.901	-14.445	429.369	354.438	-14.244
226.378	199.336	-15.383	197.266	165.687	-16.044	387.569	365.887	-14.442	429.440	354.439	-14.238
228.087	200.956	-15.233	198.651	167.634	-16.050	387.670	366.022	-14.478	429.503	354.440	-14.247
229.823	202.625	-15.340	200.042	169.562	-15.924	387.732	366.032	-14.491	429.574	354.435	-14.273
231.511	204.274	-15.278	201.455	171.468	-15.947	387.794	366.041	-14.504	429.637	354.444	-14.282
233.245	205.916	-15.200	202.894	173.441	-15.919	387.883	366.042	-14.499	429.715	354.452	-14.258
234.965	207.587	-15.232	204.314	175.393	-15.956	387.953	366.059	-14.496	429.777	354.454	-14.269
236.663	209.212	-15.146	205.745	177.269	-15.974	388.006	366.075	-14.492	429.848	354.478	-14.262
238.447	210.845	-15.192	207.141	179.265	-15.887	388.085	366.106	-14.472	429.928	354.486	-14.269
240.109	212.500	-15.098	208.565	181.172	-15.854	388.155	366.146	-14.468	429.989	354.479	-14.247
241.864	214.179	-15.151	210.005	183.114	-15.815	388.226	366.193	-14.464	430.068	354.478	-14.223
243.545	215.845	-14.985	211.405	185.144	-15.838	388.297	366.227	-14.491	430.129	354.478	-14.201
245.274	217.491	-15.047	212.918	186.991	-15.839	388.377	366.244	-14.502	430.183	354.463	-14.196
246.972	219.123	-14.976	214.303	189.008	-15.790	388.447	366.268	-14.499	430.244	354.463	-14.174
248.721	220.747	-14.970	215.726	190.964	-15.742	388.535	366.301	-14.495	430.314	354.472	-14.167
250.442	222.377	-15.038	217.221	192.864	-15.704	388.605	366.279	-14.492	430.375	354.479	-14.145
252.156	224.032	-14.991	218.587	194.887	-15.680	388.666	366.287	-14.474	430.436	354.479	-14.123
253.895	225.704	-14.957	220.124	196.812	-15.687	388.735	366.280	-14.472	430.499	354.481	-14.133
255.538	227.366	-14.894	221.552	198.771	-15.715	388.806	366.273	-14.469	430.578	354.475	-14.142
257.321	229.021	-14.940	222.959	200.783	-15.558	388.867	366.258	-14.450	430.650	354.493	-14.167
259.000	230.668	-14.845	224.451	202.713	-15.572	388.929	366.252	-14.463	430.730	354.510	-14.175
260.757	232.284	-14.928	225.913	204.688	-15.662	388.990	366.243	-14.445	430.783	354.502	-14.170
262.455	233.931	-14.796	227.387	206.675	-15.602	389.060	366.276	-14.441	430.845	354.504	-14.180
264.184	235.600	-14.824	228.801	208.652	-15.520	389.123	366.285	-14.452	430.908	354.513	-14.189
265.855	237.232	-14.728	230.283	210.621	-15.538	389.193	366.310	-14.450	430.987	354.515	-14.198
267.631	238.864	-14.736	231.763	212.621	-15.587	389.263	366.334	-14.446	431.050	354.524	-14.207
269.316	240.525	-14.737	233.238	214.592	-15.518	389.335	366.391	-14.472	431.111	354.524	-14.186
271.066	242.141	-14.751	234.692	216.600	-15.544	389.397	366.416	-14.484	431.173	354.518	-14.195
272.789	243.779	-14.682	236.195	218.563	-15.458	389.468	366.440	-14.480	431.226	354.526	-14.191
274.483	245.456	-14.688	237.633	220.562	-15.414	389.539	366.479	-14.474	431.297	354.519	-14.183
276.197	247.087	-14.629	239.158	222.539	-15.504	389.600	366.489	-14.489	431.350	354.512	-14.177
277.910	248.749	-14.596	240.634	224.516	-15.394	389.662	366.489	-14.469	431.420	354.528	-14.171
279.640	250.395	-14.661	242.105	226.564	-15.375	389.739	366.505	-14.451	431.482	354.530	-14.181
281.346	252.017	-14.573	243.615	228.517	-15.362	389.800	366.505	-14.432	431.535	354.538	-14.176
283.057	253.686	-14.662	245.130	230.541	-15.424	389.870	366.506	-14.430	431.605	354.547	-14.169
284.727	255.331	-14.537	246.605	232.534	-15.305	389.922	366.522	-14.428	431.677	354.549	-14.195
286.520	256.971	-14.571	248.113	234.558	-15.313	389.992	366.515	-14.425	431.748	354.560	-14.220
288.179	258.638	-14.522	249.656	236.542	-15.325	390.054	366.516	-14.437	431.828	354.569	-14.228
289.945	260.269	-14.536	251.154	238.581	-15.344	390.116	366.533	-14.451	431.881	354.577	-14.223
291.632	261.914	-14.493	252.647	240.589	-15.216	390.187	366.550	-14.447	431.943	354.579	-14.233
293.371	263.552	-14.548	254.162	242.620	-15.266	390.258	366.575	-14.441	432.005	354.588	-14.243
295.050	265.196	-14.356	255.742	244.582	-15.269	390.338	366.608	-14.452	432.066	354.606	-14.253
296.788	266.827	-14.502	257.205	246.644	-15.210	390.418	366.642	-14.463	432.137	354.606	-14.247
298.484	268.479	-14.366	258.749	248.661	-15.173	390.488	366.666	-14.459	432.199	354.608	-14.257
300.260	270.110	-14.408	260.309	250.638	-15.263	390.551	366.675	-14.470	432.260	354.608	-14.235
301.893	271.753	-14.347	261.810	252.669	-15.104	390.613	366.685	-14.484	432.321	354.600	-14.213
303.677	273.384	-14.335	263.335	254.693	-15.122	390.682	366.694	-14.481	432.383	354.592	-14.190
305.319	275.074	-14.282	264.941	256.686	-15.127	390.760	366.695	-14.462	432.453	354.593	-14.183
307.076	276.673	-14.344	266.431	258.708	-15.107	390.821	366.702	-14.443	432.506	354.593	-14.178
308.799	278.293	-14.208	267.995	260.740	-14.955	390.882	366.701	-14.425	432.577	354.594	-14.170
310.520	279.933	-14.359	269.553	262.749	-15.097	390.953	366.702	-14.421	432.640	354.595	-14.180
312.217	281.567	-14.199	271.134	264.749	-14.976	391.014	366.719	-14.434	432.702	354.589	-14.189
313.955	283.221	-14.280	272.622	266.841	-14.944	391.076	366.709	-14.414	432.774	354.591	-14.214
315.615	284.871	-14.176	274.264	268.804	-14.967	391.148	366.710	-14.410	432.854	354.601	-14.222
317.400	286.479	-14.203	275.787	270.881	-14.966	391.219	366.728	-14.405	432.917	354.602	-14.231
319.031	288.144	-14.145	277.378	272.881	-14.850	391.290	366.746	-14.433	432.987	354.611	-14.225
320.825	289.783	-14.179	278.926	274.936	-14.929	391.382	366.889	-14.453	433.040	354.603	-14.219
322.483	291.448	-14.099	280.533	276.960	-14.840	391.462	366.922	-14.463	433.100	354.611	-14.198
324.215	293.054	-14.110	282.092	279.014	-14.896	391.542	366.960	-14.442	433.163	354.612	-14.207
324.681	293.526	-14.059	282.547	279.659	-14.815	392.780	368.130	-14.461	434.429	355.903	-14.173
324.814	293.552	-14.044	282.594	279.898	-14.726	394.300	369.532	-14.350	436.060	357.652	-14.056
324.946	293.585	-14.062	282.640	280.162	-14.702	395.904	371.127	-14.373	437.689	359.326	-14.013
325.077	293.643	-14.113	282.678	280.411	-14.659	397.513	372.760	-14.382	439.332	361.063	-13.969
325.209	293.700	-14.132	282.752	280.668	-14.650	399.055	374.175	-14.255	440.951	362.762	-13.939
325.322	293.757	-14.150	282.806	280.901	-14.643	400.677	375.780	-14.302	442.605	364.470	-13.935
325.436	293.798	-14.137	282.844	281.143	-14.665	402.225	377.234	-14.221	444.194	366.206	-13.889
325.533	293.845	-14.123	282.899	281.393	-14.686	403.815	378.847	-14.260	445.856	367.895	-13.971
325.656	293.870	-14.092	282.972	281.628	-14.741	405.413	380.388	-14.276	447.454	369.609	-13.934
325.789	293.910	-14.045	283.054	281.863	-14.783	406.984	381.922	-14.210	449.104	371.343	-13.997
325.885	293.951	-14.030	283.110	282.074	-14.803	408.558	383.387	-14.269	450.723	373.037	-14.015
326.008	293.992	-14.033	283.184	282.285	-14.795	410.148	384.946	-14.227	452.340	374.745	-14.000
326.122	294.049	-14.083	283.239	282.589	-14.816	411.705	386.460	-14.216	453.989	376.460	-14.021
326.236	294.098	-14.101	283.294	282.815	-14.808	413.313	388.081	-14.270	455.562	378.173	-13.989
326.350	294.147	-14.119	283.359	283.027	-14.846	414.896	389.538	-14.230	457.236	379.895	-13.986
326.455	294.196	-14.120	283.441	283.292	-14.854	416.434	391.137	-14.178	458.816	381.592	-13.932
326.560	294.251	-14.090	283.505	283.526	-14.861	418.058	392.651	-14.260	460.466	383.278	-13.974
326.683	294.284	-14.060	283.569	283.791	-14.869	419.581	394.132	-14.130	462.060	384.987	-13.881
326.816	294.317	-14.045	283.625	284.017	-14.859	421.231	395.658	-14.255	463.690	386.736	-13.923
326.957	294.350	-14.046	283.689	284.251	-14.868	422.728	397.207	-14.103	465.300	388.398	-13.864
327.054	294.384	-14.095	283.770	284.485	-14.877	424.373	398.768	-14.194	466.925	390.135	-13.838
327.177	294.426	-14.129	283.852	284.734	-14.854	425.873	400.218	-14.069	468.540	391.834	-13.869
327.265	294.482	-14.130	283.936	284.961	-14.828	427.531	401.798	-14.197	470.134	393.529	-13.796
327.369	294.530	-14.133	284.019	285.172	-14.803	429.035	403.250	-13.988	471.790	395.258	-13.800
327.491	294.587	-14.136	284.101	285.413	-14.782	430.724	404.899	-14.185	473.344	396.924	-13.774
327.623	294.620	-14.123	284.183	285.671	-14.789	432.170	406.349	-14.015	475.000	398.668	-13.773
327.764	294.653	-14.092	284.239	285.897	-14.778	433.903	407.907	-14.120	476.571	400.365	-13.738
327.906	294.702	-14.092	284.285	286.162	-14.785	435.336	409.425	-14.007	478.193	402.099	-13.802
328.029	294.751	-14.093	284.347	286.473	-14.793	437.050	411.014	-14.108	479.815	403.822	-13.721
328.134	294.808	-14.127	284.421	286.731	-14.783	438.492	412.459	-13.898	481.399	405.505	-13.722
328.239	294.865	-14.161	284.487	286.965	-14.756	440.175	414.073	-14.160	483.038	407.256	-13.740
328.326	294.913	-14.162	284.568	287.222	-14.765	441.682	415.534	-13.857	484.623	408.934	-13.659
328.413	294.960	-14.133	284.693	287.474	-14.824	443.372	417.199	-14.089	486.255	410.713	-13.722
328.508	295.015	-14.088	284.792	287.677	-14.836	444.786	418.561	-13.899	487.833	412.359	-13.649
328.631	295.056	-14.090	284.903	287.865	-14.796	446.550	420.218	-14.020	489.463	414.127	-13.676
328.790	295.089	-14.059	285.006	288.085	-14.800	447.935	421.754	-13.836	491.044	415.789	-13.628
328.959	295.108	-14.042	285.113	288.343	-14.827	449.653	423.224	-14.053	492.661	417.500	-13.604
329.109	295.174	-14.091	285.184	288.601	-14.854	451.143	424.773	-13.760	494.280	419.235	-13.607
329.250	295.224	-14.155	285.232	288.811	-14.859	452.811	426.396	-14.023	495.853	420.913	-13.569
329.365	295.274	-14.205	285.271	289.077	-14.845	454.265	427.676	-13.774	497.481	422.660	-13.547
329.435	295.306	-14.206	285.370	289.390	-14.853	456.012	429.426	-13.937	499.067	424.324	-13.505
329.495	295.345	-14.160	285.432	289.692	-14.831	457.404	430.856	-13.764	500.679	426.097	-13.513
329.565	295.368	-14.097	285.506	289.910	-14.791	459.137	432.333	-13.897	502.263	427.746	-13.509
329.662	295.400	-14.051	285.608	290.121	-14.732	460.621	433.975	-13.726	503.859	429.475	-13.505
329.803	295.423	-13.956	285.782	290.373	-14.706	462.257	435.520	-13.874	505.453	431.175	-13.475
329.988	295.449	-13.910	285.897	290.630	-14.689	463.778	436.810	-13.670	507.040	432.877	-13.449
330.147	295.524	-14.006	285.979	290.770	-14.701	465.432	438.601	-13.798	508.644	434.592	-13.427
330.306	295.576	-14.135	286.081	290.968	-14.770	466.911	439.985	-13.708	510.221	436.296	-13.416
330.420	295.618	-14.184	286.199	291.252	-14.807	468.582	441.505	-13.705	511.842	438.026	-13.384
330.481	295.650	-14.170	286.268	291.578	-14.837	470.121	443.092	-13.677	513.414	439.734	-13.416
330.550	295.681	-14.140	286.341	291.774	-14.894	471.687	444.661	-13.715	515.040	441.439	-13.363
330.611	295.736	-14.092	286.416	291.962	-14.885	473.299	446.064	-13.645	516.627	443.142	-13.355
330.690	295.775	-14.045	286.518	292.283	-14.822	474.878	447.724	-13.638	518.212	444.802	-13.320
330.831	295.798	-13.949	286.633	292.630	-14.674	476.439	449.190	-13.709	519.797	446.598	-13.307
330.990	295.837	-13.822	286.752	292.816	-14.590	478.001	450.717	-13.557	521.382	448.246	-13.222
331.167	295.897	-13.918	286.872	292.934	-14.599	479.658	452.264	-13.659	522.961	449.990	-13.262
331.353	295.966	-14.062	287.036	293.166	-14.718	481.140	453.760	-13.573	524.532	451.648	-13.205
331.530	296.035	-14.221	287.104	293.595	-14.711	482.797	455.380	-13.600	526.152	453.441	-13.172
331.617	296.075	-14.223	287.150	293.773	-14.722	484.325	456.819	-13.542	527.747	455.065	-13.168
331.687	296.122	-14.192	287.269	293.908	-14.796	485.923	458.396	-13.621	529.331	456.853	-13.181
331.757	296.154	-14.161	287.405	294.155	-14.899	487.471	459.876	-13.416	530.919	458.505	-13.136
331.853	296.185	-14.114	287.474	294.607	-14.888	489.096	461.401	-13.530	532.475	460.207	-13.133
331.941	296.208	-14.018	287.575	294.785	-14.835	490.604	462.948	-13.507	534.057	461.921	-13.184
332.046	296.232	-13.956	287.724	294.883	-14.638	492.240	464.507	-13.455	535.627	463.630	-13.100
332.197	296.265	-13.940	287.862	295.080	-14.613	493.800	465.992	-13.454	537.237	465.410	-13.108
332.365	296.308	-13.989	287.941	295.549	-14.650	495.363	467.522	-13.516	538.793	467.048	-13.096
332.523	296.336	-14.087	288.046	295.753	-14.714	496.935	469.083	-13.417	540.368	468.786	-13.073
332.627	296.410	-14.187	288.148	295.871	-14.756	498.533	470.616	-13.398	541.973	470.515	-13.115
332.723	296.475	-14.237	288.267	296.053	-14.795	500.087	472.145	-13.434	543.505	472.246	-13.035
332.792	296.507	-14.208	288.357	296.518	-14.874	501.666	473.615	-13.449	545.133	473.973	-13.069
332.862	296.522	-14.145	288.453	296.775	-14.921	503.229	475.261	-13.322	546.667	475.669	-13.006
332.940	296.553	-14.098	288.600	296.886	-14.915	504.832	476.647	-13.417	548.274	477.299	-13.001
333.046	296.577	-14.035	288.748	297.009	-14.782	506.370	478.252	-13.372	549.823	479.000	-13.009
333.169	296.626	-14.036	288.866	297.392	-14.722	507.963	479.820	-13.341	551.384	480.698	-12.922
333.310	296.652	-14.069	288.952	297.710	-14.689	509.525	481.281	-13.344	552.981	482.483	-13.040
333.469	296.687	-14.103	289.062	297.827	-14.685	511.100	482.786	-13.319	554.496	484.115	-12.865
333.618	296.730	-14.152	289.199	298.002	-14.758	512.690	484.362	-13.351	556.160	485.909	-12.927
333.750	296.771	-14.170	289.280	298.331	-14.794	514.240	485.919	-13.271	557.683	487.521	-12.842
333.874	296.829	-14.201	289.413	298.718	-14.897	515.857	487.308	-13.355	559.224	489.363	-12.930
333.970	296.869	-14.187	289.550	298.906	-14.876	517.378	488.967	-13.285	560.867	491.027	-12.888
334.058	296.885	-14.154	289.706	299.040	-14.853	519.000	490.475	-13.276	562.356	492.757	-12.756
334.155	296.909	-14.106	289.807	299.264	-14.766	520.556	492.005	-13.204	564.005	494.499	-12.884
334.252	296.949	-14.089	289.932	299.601	-14.759	522.138	493.441	-13.246	565.447	496.158	-12.824
334.367	297.013	-14.073	290.048	299.817	-14.710	523.713	495.087	-13.250	567.088	497.913	-12.770
334.490	297.061	-14.073	290.185	299.958	-14.689	525.291	496.551	-13.160	568.702	499.587	-12.742
334.612	297.109	-14.043	290.277	300.194	-14.711	526.880	498.015	-13.175	570.159	501.308	-12.670
334.735	297.142	-14.012	290.421	300.542	-14.794	528.394	499.691	-13.165	571.793	503.006	-12.821
334.850	297.174	-13.996	290.574	300.818	-14.835	530.025	501.143	-13.124	573.274	504.659	-12.564
334.956	297.200	-13.996	290.738	301.007	-14.830	531.582	502.663	-13.098	574.916	506.386	-12.600
335.071	297.241	-14.012	290.855	301.225	-14.776	533.142	504.225	-13.120	576.477	508.061	-12.651
335.176	297.289	-14.012	290.964	301.457	-14.707	534.730	505.723	-13.088	577.936	509.742	-12.598
335.300	297.331	-14.043	291.126	301.732	-14.701	536.303	507.199	-13.018	579.625	511.477	-12.628
335.423	297.389	-14.075	291.243	301.919	-14.681	537.884	508.798	-13.029	581.085	513.136	-12.408
335.546	297.430	-14.076	291.344	302.130	-14.658	539.414	510.387	-13.032	582.722	514.855	-12.560
335.651	297.462	-14.078	291.472	302.365	-14.649	541.027	511.843	-12.974	584.237	516.643	-12.592
335.765	297.487	-14.063	291.652	302.698	-14.734	542.623	513.336	-12.978	585.785	518.257	-12.417
335.879	297.519	-14.016	291.823	302.943	-14.777	544.161	514.949	-12.960	587.462	520.020	-12.455
336.002	297.552	-13.985	291.958	303.178	-14.756	545.757	516.456	-12.957	588.871	521.708	-12.277
336.126	297.593	-14.018	292.075	303.386	-14.672	547.333	517.909	-12.889	590.497	523.449	-12.439
336.258	297.643	-14.033	292.211	303.597	-14.650	548.902	519.487	-12.869	592.021	525.229	-12.389
336.381	297.700	-14.066	292.364	303.848	-14.628	550.463	521.037	-12.900	593.550	526.848	-12.288
336.496	297.734	-14.113	292.474	304.060	-14.652	552.020	522.566	-12.828	595.201	528.603	-12.334
336.602	297.767	-14.113	292.610	304.288	-14.661	553.633	524.042	-12.842	596.643	530.275	-12.215
336.698	297.792	-14.098	292.762	304.556	-14.702	555.206	525.525	-12.770	598.237	532.026	-12.323
336.804	297.824	-14.066	292.935	304.811	-14.773	556.727	527.190	-12.839	599.803	533.758	-12.265
336.909	297.865	-14.066	293.069	305.076	-14.752	558.326	528.662	-12.765	601.289	535.418	-12.179
337.015	297.896	-14.002	293.223	305.271	-14.700	559.904	530.152	-12.739	602.909	537.125	-12.252
337.138	297.921	-13.971	293.350	305.474	-14.663	561.462	531.698	-12.789	604.372	538.813	-12.137
337.252	297.946	-13.956	293.486	305.677	-14.640	563.012	533.250	-12.784	605.981	540.510	-12.107
337.376	297.980	-13.988	293.622	305.939	-14.710	564.615	534.791	-12.727	607.509	542.246	-12.176
337.499	298.029	-14.021	293.766	306.189	-14.704	566.207	536.190	-12.699	609.030	543.869	-12.020
337.623	298.064	-14.084	293.919	306.417	-14.714	567.731	537.821	-12.700	610.619	545.616	-12.073
337.729	298.106	-14.115	294.082	306.623	-14.740	569.303	539.394	-12.735	612.130	547.298	-11.929
337.834	298.138	-14.116	294.227	306.858	-14.734	570.892	540.836	-12.665	613.674	549.011	-11.974
337.931	298.156	-14.133	294.398	307.100	-14.681	572.484	542.305	-12.623	615.221	550.718	-11.977
338.028	298.172	-14.085	294.543	307.336	-14.674	574.032	543.907	-12.698	616.732	552.288	-11.946
338.133	298.212	-14.054	294.687	307.555	-14.669	575.580	545.470	-12.672	618.319	554.051	-11.913
338.238	298.244	-14.023	294.832	307.784	-14.693	577.190	546.892	-12.616	619.878	555.694	-11.824
338.361	298.285	-14.024	294.976	308.020	-14.719	578.758	548.384	-12.539	621.369	557.436	-11.855
338.502	298.311	-14.024	295.139	308.239	-14.681	580.303	550.019	-12.571	622.900	559.100	-11.893
338.617	298.352	-14.039	295.320	308.476	-14.706	581.882	551.505	-12.608	624.401	560.838	-11.865
