NO_OF_FRAMES	182
NO_OF_CAMERAS	2
NO_OF_MARKERS	4
FREQUENCY	500
NO_OF_ANALOG	0
ANALOG_FREQUENCY	0
DESCRIPTION	--
TIME_STAMP	2024-11-05, 14:33:55.407	2237363.53985250
DATA_INCLUDED	3D
MARKER_NAMES	New 0000	New 0001	New 0002	New 0003
TRAJECTORY_TYPES	Measured	Measured	Measured	Measured
162.811	156.799	-16.273	107.246	143.608	-15.973	337.582	233.122	-14.464	351.063	288.122	-14.098
165.621	160.705	-16.159	109.779	148.619	-15.853	337.591	233.145	-14.447	351.062	288.161	-14.099
168.450	164.422	-16.214	112.381	153.679	-15.741	337.590	233.184	-14.447	351.070	288.208	-14.115
171.239	168.354	-16.322	114.954	158.767	-15.635	337.606	233.223	-14.447	351.078	288.246	-14.099
173.956	172.048	-16.112	117.521	163.887	-15.620	337.597	233.254	-14.464	351.077	288.293	-14.130
176.816	176.048	-16.146	120.170	169.030	-15.532	337.614	233.277	-14.463	351.085	288.316	-14.114
179.720	179.820	-16.222	122.846	174.131	-15.453	337.613	233.308	-14.463	351.084	288.355	-14.114
182.504	183.602	-15.992	125.534	179.150	-15.355	337.621	233.340	-14.447	351.084	288.386	-14.114
185.234	187.481	-15.887	128.279	184.256	-15.317	337.629	233.371	-14.463	351.092	288.409	-14.098
188.092	191.351	-16.122	131.062	189.276	-15.391	337.628	233.402	-14.463	351.082	288.440	-14.114
190.881	195.128	-15.986	133.874	194.428	-15.377	337.645	233.449	-14.463	351.091	288.463	-14.098
193.644	198.938	-15.785	136.613	199.472	-15.152	337.653	233.480	-14.479	351.090	288.487	-14.099
196.510	202.800	-15.828	139.473	204.497	-15.117	337.652	233.511	-14.479	351.089	288.526	-14.100
199.301	206.565	-15.838	142.387	209.662	-15.165	337.651	233.557	-14.480	351.088	288.557	-14.100
202.085	210.405	-15.730	145.220	214.797	-15.089	337.659	233.588	-14.496	351.095	288.595	-14.085
204.903	214.274	-15.649	148.071	219.844	-14.897	337.676	233.628	-14.496	351.095	288.618	-14.085
207.719	218.098	-15.657	151.118	224.908	-15.138	337.683	233.667	-14.481	351.093	288.657	-14.086
210.382	221.903	-15.713	153.929	229.942	-15.022	337.832	233.739	-14.469	351.305	288.692	-14.085
211.210	225.166	-15.632	155.108	235.157	-15.146	339.742	234.325	-14.458	353.973	289.153	-14.174
211.897	228.330	-15.600	156.142	240.411	-15.159	341.942	234.986	-14.497	356.931	289.592	-14.107
212.836	231.627	-15.612	157.462	245.530	-15.042	343.895	235.573	-14.426	359.564	290.012	-14.182
213.934	234.971	-15.614	159.045	250.630	-14.970	345.467	236.122	-14.382	361.843	290.316	-14.163
215.148	238.316	-15.582	160.732	255.614	-14.833	347.139	236.626	-14.302	364.043	290.626	-14.124
216.514	241.721	-15.485	162.631	260.628	-14.874	348.592	237.063	-14.445	365.984	290.938	-14.040
217.924	245.076	-15.411	164.626	265.532	-14.800	349.846	237.614	-14.381	367.776	291.184	-13.940
219.569	248.494	-15.439	166.806	270.424	-14.769	351.066	238.017	-14.329	369.592	291.509	-13.853
221.184	251.825	-15.394	169.074	275.313	-14.777	352.222	238.573	-14.286	371.257	291.761	-13.722
222.861	255.147	-15.309	171.476	280.188	-14.753	353.361	239.028	-14.213	373.048	292.069	-13.642
224.642	258.498	-15.357	173.966	285.018	-14.771	354.426	239.715	-14.229	374.741	292.322	-13.550
226.355	261.743	-15.333	176.555	289.819	-14.780	355.512	240.215	-14.256	376.549	292.640	-13.530
228.112	265.037	-15.293	179.181	294.621	-14.756	356.551	240.808	-14.255	378.287	292.886	-13.447
229.888	268.293	-15.282	181.863	299.370	-14.729	357.616	241.494	-14.342	380.079	293.166	-13.451
231.664	271.491	-15.240	184.596	304.107	-14.768	358.666	241.956	-14.228	381.898	293.430	-13.468
233.436	274.802	-15.287	187.354	308.796	-14.820	359.739	242.665	-14.292	383.591	293.653	-13.426
235.194	278.128	-15.230	190.128	313.430	-14.784	360.745	243.110	-14.195	385.395	293.889	-13.532
236.995	281.383	-15.227	192.980	318.024	-14.859	361.764	243.795	-14.193	387.062	294.087	-13.436
238.870	284.592	-15.162	195.853	322.506	-14.867	362.724	244.325	-14.113	388.794	294.273	-13.476
240.708	287.918	-15.088	198.723	326.922	-14.782	363.613	244.830	-14.036	390.473	294.449	-13.451
242.697	291.076	-15.107	201.729	331.321	-14.929	364.456	245.542	-14.162	392.115	294.617	-13.427
244.654	294.327	-15.015	204.740	335.592	-14.791	365.353	246.179	-14.192	393.821	294.740	-13.410
246.624	297.546	-15.025	207.808	339.816	-14.829	366.231	246.831	-14.192	395.464	294.846	-13.382
248.624	300.750	-14.981	210.805	343.993	-14.879	366.958	247.402	-14.082	397.225	294.922	-13.354
250.632	303.931	-14.951	213.810	348.096	-14.821	367.801	248.061	-14.146	398.868	294.934	-13.255
252.659	307.081	-14.916	216.901	352.115	-14.891	368.661	248.728	-14.141	400.694	294.966	-13.294
254.713	310.249	-14.894	219.870	356.096	-14.724	369.379	249.369	-14.112	402.338	294.868	-13.157
256.785	313.399	-14.839	222.980	359.955	-14.872	370.078	250.056	-14.114	404.138	294.815	-13.178
258.885	316.582	-14.794	225.934	363.798	-14.746	370.875	250.752	-14.093	405.821	294.703	-13.093
261.017	319.705	-14.846	229.007	367.585	-14.817	371.539	251.431	-14.095	407.577	294.483	-12.998
263.151	322.836	-14.859	231.988	371.312	-14.724	372.220	252.149	-14.096	409.264	294.296	-13.003
265.278	325.958	-14.818	235.084	374.990	-14.774	372.900	252.866	-14.033	410.960	294.085	-12.985
267.414	329.055	-14.757	238.146	378.591	-14.747	373.546	253.614	-14.097	412.583	293.838	-12.842
269.605	332.138	-14.726	241.166	382.229	-14.690	374.171	254.346	-14.038	414.220	293.535	-12.872
271.832	335.198	-14.659	244.283	385.760	-14.742	374.754	255.109	-14.089	415.820	293.237	-12.838
274.096	338.211	-14.588	247.300	389.306	-14.582	375.345	255.879	-14.058	417.330	292.912	-12.743
276.340	341.242	-14.576	250.419	392.822	-14.645	375.863	256.702	-14.065	418.837	292.561	-12.825
278.593	344.260	-14.607	253.560	396.235	-14.666	376.434	257.519	-14.036	420.304	292.204	-12.712
280.882	347.269	-14.603	256.632	399.655	-14.479	376.899	258.341	-14.009	421.665	291.847	-12.640
283.218	350.231	-14.576	259.800	403.037	-14.498	377.399	259.179	-13.983	423.047	291.453	-12.660
285.604	353.122	-14.495	263.033	406.322	-14.555	377.846	260.087	-14.089	424.303	291.127	-12.658
287.973	356.085	-14.493	266.234	409.609	-14.533	378.228	260.969	-13.988	425.507	290.714	-12.626
290.433	358.967	-14.521	269.446	412.842	-14.422	378.683	261.931	-14.108	426.654	290.436	-12.532
292.933	361.748	-14.540	272.747	415.995	-14.369	378.965	262.905	-14.029	427.677	290.111	-12.450
295.381	364.557	-14.516	276.102	419.089	-14.338	379.283	263.887	-14.012	428.730	289.788	-12.443
297.900	367.324	-14.427	279.487	422.211	-14.342	379.611	264.931	-14.039	429.711	289.533	-12.442
300.375	370.145	-14.343	282.880	425.270	-14.352	379.910	266.015	-14.087	430.646	289.278	-12.430
302.907	372.871	-14.444	286.298	428.335	-14.336	380.127	267.088	-14.029	431.466	289.010	-12.376
305.573	375.481	-14.304	289.750	431.312	-14.288	380.390	268.208	-14.012	432.297	288.769	-12.402
308.038	378.174	-14.409	293.274	434.240	-14.199	380.643	269.384	-14.111	433.083	288.572	-12.415
310.598	380.849	-14.219	296.787	437.153	-14.209	380.859	270.567	-14.118	433.777	288.403	-12.372
313.255	383.518	-14.262	300.336	440.058	-14.208	381.066	271.733	-14.075	434.440	288.200	-12.466
315.820	386.096	-14.366	303.952	442.844	-14.176	381.264	272.930	-14.078	435.025	288.043	-12.337
318.506	388.658	-14.092	307.565	445.682	-14.196	381.416	274.172	-14.071	435.573	287.939	-12.488
321.068	391.318	-14.253	311.183	448.446	-14.103	381.549	275.485	-14.064	436.089	287.820	-12.428
323.808	393.751	-14.125	314.866	451.149	-14.013	381.700	276.750	-14.023	436.507	287.851	-12.496
326.367	396.284	-14.149	318.592	453.887	-14.107	381.852	278.015	-13.981	436.951	287.820	-12.513
329.094	398.657	-14.065	322.408	456.373	-14.016	381.983	279.414	-14.041	437.364	287.797	-12.628
331.797	401.249	-14.105	326.114	459.067	-13.996	382.089	280.773	-14.085	437.529	287.899	-12.593
334.414	403.505	-14.042	329.993	461.561	-13.977	382.202	282.171	-14.112	437.773	288.062	-12.563
337.204	406.071	-14.043	333.803	464.109	-14.036	382.259	283.597	-14.047	438.161	288.167	-12.550
339.858	408.350	-14.060	337.721	466.446	-13.865	382.345	285.047	-14.024	438.337	288.255	-12.563
342.584	410.770	-13.904	341.601	468.893	-13.990	382.428	286.514	-14.008	438.402	288.406	-12.597
345.349	413.108	-14.060	345.565	471.176	-13.833	382.468	288.034	-14.037	438.464	288.733	-12.596
348.040	415.391	-13.858	349.538	473.492	-13.890	382.533	289.547	-14.055	438.586	289.090	-12.705
350.853	417.657	-13.979	353.480	475.708	-13.768	382.581	291.115	-14.102	438.634	289.341	-12.769
353.553	419.852	-13.842	357.575	477.776	-13.770	382.599	292.687	-14.039	438.585	289.788	-12.714
356.377	422.135	-13.895	361.573	480.057	-13.749	382.644	294.308	-14.024	438.605	290.199	-12.793
359.053	424.264	-13.822	365.677	481.971	-13.636	382.698	295.912	-13.990	438.567	290.685	-12.815
361.920	426.460	-13.844	369.728	483.874	-13.765	382.689	297.586	-13.976	438.401	291.124	-12.760
364.580	428.559	-13.786	373.801	485.874	-13.613	382.714	299.285	-13.996	438.302	291.727	-12.869
367.474	430.708	-13.806	377.928	487.756	-13.646	382.719	301.044	-13.985	438.134	292.327	-12.812
370.171	432.774	-13.729	382.046	489.551	-13.603	382.726	302.806	-14.037	437.967	292.968	-12.854
373.024	434.840	-13.715	386.120	491.233	-13.529	382.749	304.582	-14.058	437.827	293.710	-12.906
375.740	436.818	-13.687	390.280	492.967	-13.508	382.762	306.383	-14.097	437.603	294.456	-12.889
378.592	438.863	-13.690	394.450	494.611	-13.517	382.774	308.212	-14.070	437.401	295.253	-12.996
381.344	440.834	-13.675	398.517	496.103	-13.438	382.822	310.047	-13.973	437.178	296.109	-13.073
384.136	442.750	-13.647	402.605	497.545	-13.337	382.807	311.952	-13.929	436.954	297.004	-13.120
386.936	444.663	-13.594	406.759	498.982	-13.390	382.791	313.889	-13.920	436.613	297.895	-12.993
389.710	446.549	-13.584	410.908	500.366	-13.342	382.783	315.859	-13.927	436.288	298.834	-13.002
392.508	448.356	-13.484	414.956	501.626	-13.303	382.764	317.859	-13.920	436.038	299.862	-13.130
395.286	450.256	-13.550	419.073	502.875	-13.241	382.764	319.891	-13.943	435.716	300.909	-13.095
398.113	451.977	-13.447	423.141	504.027	-13.163	382.753	321.978	-13.983	435.365	301.993	-13.014
400.865	453.772	-13.482	427.212	505.134	-13.164	382.760	324.035	-14.025	435.049	303.121	-13.134
403.654	455.482	-13.442	431.253	506.138	-13.038	382.811	326.085	-14.048	434.709	304.277	-13.132
406.448	457.182	-13.379	435.304	507.123	-13.084	382.878	328.172	-14.039	434.386	305.440	-13.128
409.201	458.854	-13.422	439.295	508.033	-13.026	382.929	330.320	-14.025	433.983	306.721	-13.181
411.998	460.458	-13.341	443.240	508.809	-12.908	382.954	332.628	-13.991	433.607	307.987	-13.248
414.701	462.106	-13.337	447.199	509.627	-12.882	382.980	334.783	-13.926	433.235	309.342	-13.231
417.465	463.636	-13.306	451.156	510.342	-12.919	383.014	336.979	-13.909	432.820	310.683	-13.239
420.203	465.121	-13.219	454.972	510.936	-12.738	383.096	339.427	-13.860	432.413	312.035	-13.296
422.909	466.650	-13.246	458.841	511.560	-12.753	383.184	341.714	-13.803	432.002	313.503	-13.219
425.614	468.077	-13.210	462.667	512.119	-12.731	383.311	344.062	-13.870	431.555	314.968	-13.215
428.344	469.547	-13.149	466.376	512.594	-12.628	383.408	346.587	-13.922	431.083	316.478	-13.227
430.988	470.934	-13.119	470.120	513.046	-12.649	383.513	348.930	-13.897	430.662	317.967	-13.236
433.673	472.354	-13.162	473.731	513.426	-12.548	383.590	351.423	-13.921	430.161	319.537	-13.202
436.350	473.680	-13.017	477.385	513.827	-12.554	383.719	353.814	-13.882	429.770	321.172	-13.386
439.041	475.027	-13.106	480.971	514.163	-12.477	383.867	356.423	-13.900	429.191	322.759	-13.201
441.627	476.341	-13.057	484.477	514.470	-12.382	384.013	358.876	-13.859	428.719	324.377	-13.345
444.344	477.617	-13.078	488.016	514.743	-12.382	384.163	361.437	-13.804	428.120	326.035	-13.195
446.933	478.810	-12.946	491.445	514.952	-12.322	384.317	363.983	-13.778	427.655	327.714	-13.321
449.580	480.069	-13.026	494.831	515.146	-12.273	384.545	366.654	-13.872	427.007	329.406	-13.272
452.136	481.280	-12.981	498.201	515.366	-12.247	384.743	369.266	-13.892	426.540	331.212	-13.329
454.719	482.453	-13.007	501.482	515.526	-12.157	384.939	371.904	-13.816	425.860	332.987	-13.236
457.300	483.554	-12.895	504.722	515.675	-12.168	385.176	374.600	-13.789	425.356	334.715	-13.370
459.870	484.719	-12.872	507.958	515.702	-12.115	385.419	377.299	-13.820	424.654	336.645	-13.351
462.410	485.821	-12.897	511.139	515.800	-12.028	385.676	380.013	-13.822	424.099	338.434	-13.312
464.866	486.924	-12.816	514.224	515.889	-11.998	385.958	382.787	-13.774	423.377	340.428	-13.329
467.402	488.005	-12.875	517.297	515.878	-11.912	386.251	385.525	-13.774	422.795	342.287	-13.308
469.857	488.997	-12.857	520.328	515.873	-11.873	386.541	388.300	-13.743	422.099	344.266	-13.409
472.307	490.045	-12.837	523.274	515.872	-11.839	386.933	391.161	-13.814	421.442	346.243	-13.328
474.813	491.014	-12.868	526.240	515.834	-11.745	387.238	393.950	-13.751	420.735	348.298	-13.411
477.184	491.991	-12.797	529.138	515.804	-11.756	387.555	396.789	-13.734	420.061	350.364	-13.396
479.579	492.910	-12.777	532.006	515.704	-11.794	388.012	399.702	-13.742	419.369	352.511	-13.446
482.003	493.896	-12.819	534.830	515.589	-11.670	388.343	402.545	-13.661	418.657	354.701	-13.333
484.327	494.766	-12.732	537.555	515.501	-11.575	388.823	405.499	-13.792	417.943	356.960	-13.421
486.644	495.663	-12.712	540.289	515.374	-11.636	389.239	408.419	-13.677	417.236	359.199	-13.327
488.996	496.521	-12.759	542.948	515.232	-11.606	389.732	411.424	-13.745	416.561	361.485	-13.474
491.336	497.310	-12.754	545.564	515.025	-11.561	390.205	414.369	-13.653	415.912	363.822	-13.427
493.576	498.099	-12.644	548.162	514.822	-11.546	390.712	417.431	-13.724	415.178	366.293	-13.446
495.835	498.865	-12.491	550.691	514.582	-11.506	391.325	420.417	-13.732	414.591	368.714	-13.475
498.020	499.704	-12.515	553.178	514.340	-11.438	391.831	423.466	-13.631	413.871	371.271	-13.396
500.171	500.481	-12.696	555.648	514.016	-11.413	392.470	426.561	-13.716	413.310	373.776	-13.504
502.390	501.242	-12.706	558.048	513.719	-11.388	393.106	429.589	-13.634	412.657	376.369	-13.355
504.587	501.827	-12.594	560.384	513.380	-11.297	393.695	432.738	-13.613	412.114	378.973	-13.527
506.720	502.611	-12.572	562.781	512.985	-11.308	394.430	435.773	-13.669	411.509	381.743	-13.443
508.736	503.359	-12.754	565.026	512.583	-11.196	395.095	438.932	-13.564	410.979	384.482	-13.449
510.855	504.110	-12.610	567.210	512.211	-11.216	395.822	442.029	-13.536	410.430	387.186	-13.492
512.914	504.752	-12.579	569.375	511.781	-11.167	396.590	445.219	-13.663	409.939	390.024	-13.448
514.868	505.512	-12.687	571.556	511.254	-11.121	397.407	448.364	-13.626	409.478	392.877	-13.414
516.843	505.931	-12.418	573.595	510.837	-11.097	398.176	451.532	-13.513	409.048	395.850	-13.482
518.689	506.481	-12.510	575.632	510.294	-11.083	399.018	454.722	-13.524	408.534	398.818	-13.410
520.622	507.120	-12.365	577.628	509.767	-10.974	399.877	457.947	-13.499	408.196	401.783	-13.466
522.513	507.741	-12.441	579.561	509.196	-11.023	400.757	461.160	-13.569	407.870	404.851	-13.524
524.420	508.416	-12.377	581.511	508.744	-11.088	401.689	464.374	-13.568	407.503	407.925	-13.460
526.265	508.915	-12.430	583.374	508.164	-11.067	402.637	467.605	-13.567	407.125	411.018	-13.350
528.095	509.507	-12.391	585.139	507.584	-11.181	403.603	470.821	-13.499	406.855	414.155	-13.360
529.899	510.115	-12.424	586.778	506.737	-10.742	404.605	474.071	-13.523	406.669	417.383	-13.440
531.622	510.668	-12.413	588.532	506.326	-10.939	405.625	477.314	-13.480	406.470	420.692	-13.484
533.332	511.157	-12.308	590.176	505.677	-11.031	406.689	480.537	-13.449	406.278	423.856	-13.506
535.066	511.702	-12.382	591.650	504.941	-10.933	407.764	483.823	-13.431	406.123	427.172	-13.489
536.757	512.331	-12.431	593.267	504.301	-10.974	408.861	487.081	-13.428	406.103	430.558	-13.475
538.360	512.757	-12.274	594.697	503.588	-10.892	409.982	490.370	-13.418	406.045	433.792	-13.362
540.031	513.320	-12.369	596.140	502.954	-10.861	411.133	493.644	-13.408	406.052	437.286	-13.328
541.555	513.834	-12.319	597.516	502.235	-10.883	412.348	496.921	-13.406	406.054	440.600	-13.228
543.139	514.345	-12.315	598.814	501.503	-10.863	413.618	500.178	-13.364	406.061	444.077	-13.218
544.679	514.866	-12.256	600.002	500.873	-10.851	414.843	503.455	-13.308	406.146	447.534	-13.221
546.173	515.419	-12.268	601.212	500.113	-10.817	416.087	506.750	-13.313	406.310	451.028	-13.277
547.650	515.903	-12.248	602.376	499.378	-10.827	417.417	510.096	-13.343	406.513	454.565	-13.219
549.093	516.393	-12.267	603.435	498.692	-10.749	418.783	513.329	-13.335	406.728	458.106	-13.164
550.514	516.924	-12.292	604.435	498.034	-10.821	420.151	516.546	-13.171	406.988	461.654	-13.197
551.864	517.386	-12.229	605.396	497.283	-10.838	421.521	519.826	-13.221	407.267	465.251	-13.152
553.219	517.939	-12.262	606.321	496.611	-10.792	422.953	523.186	-13.366	407.593	468.797	-13.042
554.567	518.483	-12.265	607.173	495.928	-10.900	424.401	526.426	-13.127	408.024	472.489	-13.140
555.818	518.939	-12.171	607.980	495.282	-10.911	425.895	529.755	-13.322	408.421	476.094	-12.992
557.071	519.472	-12.175	608.674	494.568	-10.869	427.335	533.053	-13.259	408.892	479.779	-13.073
558.359	520.022	-12.249	609.351	493.886	-10.831	428.969	536.208	-13.108	409.370	483.394	-12.932
559.562	520.525	-12.225	609.942	493.276	-10.935	430.442	539.593	-13.213	409.939	487.126	-12.988
560.717	521.028	-12.233	610.537	492.644	-10.916	432.150	542.707	-13.036	410.468	490.761	-12.812
561.843	521.572	-12.161	611.029	491.977	-10.918	433.670	546.083	-13.079	411.162	494.486	-12.855
562.971	522.082	-12.121	611.461	491.492	-11.001	435.430	549.255	-13.164	411.756	498.183	-12.785
564.083	522.630	-12.162	611.835	490.850	-11.000	436.985	552.540	-12.958	412.463	501.903	-12.764
565.168	523.151	-12.112	612.216	490.334	-11.015	438.790	555.710	-13.080	413.220	505.631	-12.676
566.185	523.802	-12.180	612.475	489.803	-11.034	440.531	559.051	-13.071	413.984	509.358	-12.572
