NO_OF_FRAMES	246
NO_OF_CAMERAS	2
NO_OF_MARKERS	4
FREQUENCY	500
NO_OF_ANALOG	0
ANALOG_FREQUENCY	0
DESCRIPTION	--
TIME_STAMP	2024-11-06, 09:48:07.066	2306614.90060800
DATA_INCLUDED	3D
MARKER_NAMES	New 0000	New 0001	New 0002	New 0003
TRAJECTORY_TYPES	Measured	Measured	Measured	Measured
293.642	167.192	-9.993	320.852	177.367	-8.642	424.896	413.097	-13.996	405.411	387.086	-13.631
294.455	169.599	-9.891	321.685	179.872	-8.466	424.860	413.113	-13.999	405.412	387.078	-13.630
295.130	172.227	-9.481	322.201	182.616	-7.985	424.824	413.136	-14.003	405.394	387.078	-13.631
295.915	174.559	-9.515	322.983	185.159	-7.979	424.788	413.151	-14.006	405.386	387.068	-13.615
296.727	177.005	-9.413	323.541	187.878	-7.500	424.761	413.165	-13.993	405.385	387.076	-13.616
297.413	179.467	-9.202	324.348	190.475	-7.450	424.725	413.188	-13.997	405.368	387.068	-13.617
298.299	181.788	-9.166	324.997	193.177	-7.014	424.681	413.205	-14.017	405.368	387.068	-13.617
299.162	184.215	-9.219	325.740	195.723	-7.052	424.654	413.226	-14.003	405.359	387.075	-13.601
299.947	186.570	-9.025	326.414	198.346	-7.138	424.628	413.243	-14.022	405.350	387.068	-13.618
300.725	188.946	-9.047	327.061	201.108	-6.953	424.591	413.266	-14.026	405.341	387.067	-13.602
301.573	191.241	-9.154	327.859	203.632	-7.057	424.555	413.279	-13.997	405.332	387.083	-13.619
302.475	193.554	-9.236	328.497	206.252	-7.329	424.510	413.311	-14.018	405.332	387.076	-13.620
303.303	195.968	-9.319	329.227	208.980	-7.318	424.483	413.325	-14.004	405.323	387.082	-13.604
304.098	198.299	-9.296	329.873	211.581	-7.498	424.446	413.356	-14.009	405.314	387.075	-13.621
304.901	200.670	-9.453	330.582	214.204	-7.831	424.411	413.379	-14.012	405.305	387.074	-13.606
305.740	202.975	-9.704	331.314	216.892	-8.043	424.383	413.401	-13.999	405.295	387.081	-13.591
306.631	205.338	-9.892	331.936	219.437	-8.393	424.338	413.422	-13.987	405.278	387.081	-13.592
307.469	207.744	-10.181	332.642	222.150	-8.722	424.301	413.438	-13.992	405.278	387.081	-13.592
308.290	210.049	-10.486	333.298	224.793	-9.136	424.275	413.462	-14.010	405.268	387.088	-13.577
309.128	212.431	-10.769	333.974	227.364	-9.556	424.229	413.485	-14.000	405.250	387.087	-13.579
309.931	214.795	-11.015	334.647	230.051	-10.070	424.201	413.499	-13.986	405.250	387.087	-13.579
310.754	217.090	-11.387	335.295	232.733	-10.627	424.165	413.514	-13.991	405.233	387.095	-13.580
311.582	219.536	-11.780	335.991	235.227	-11.043	424.129	413.545	-13.994	405.232	387.087	-13.580
312.369	221.856	-12.150	336.622	237.948	-11.763	424.093	413.560	-13.998	405.214	387.095	-13.582
313.228	224.136	-12.616	337.272	240.582	-12.353	424.065	413.582	-13.985	405.205	387.094	-13.567
314.023	226.499	-13.063	337.977	243.130	-12.911	424.028	413.598	-13.989	405.196	387.092	-13.551
314.810	228.834	-13.467	338.645	245.801	-13.498	423.993	413.636	-13.993	405.187	387.109	-13.568
315.627	231.086	-13.562	339.330	248.298	-13.483	423.957	413.652	-13.996	405.178	387.102	-13.585
316.425	233.369	-13.529	340.035	250.714	-13.235	423.922	413.674	-13.999	405.169	387.101	-13.570
317.204	235.702	-13.497	340.756	253.137	-13.190	423.886	413.698	-14.003	405.151	387.109	-13.571
318.029	237.945	-13.453	341.313	255.753	-12.978	423.850	413.721	-14.006	405.151	387.109	-13.571
318.836	240.248	-13.401	341.945	258.266	-13.094	423.814	413.744	-14.010	405.141	387.100	-13.557
319.688	242.489	-13.336	342.504	260.836	-12.942	423.778	413.759	-14.013	405.133	387.101	-13.573
320.502	244.837	-13.238	343.101	263.384	-13.118	423.752	413.783	-14.031	405.123	387.100	-13.558
321.311	247.015	-13.284	343.680	265.891	-13.128	423.717	413.798	-14.034	405.106	387.100	-13.559
322.090	249.355	-13.308	344.286	268.433	-13.153	423.681	413.829	-14.038	405.106	387.100	-13.559
322.942	251.622	-13.306	344.919	270.912	-13.294	423.654	413.835	-14.024	405.097	387.101	-13.576
323.783	253.944	-13.250	345.471	273.438	-13.159	423.619	413.858	-14.027	405.088	387.099	-13.560
324.637	256.152	-13.242	346.123	275.902	-13.330	423.583	413.881	-14.031	405.071	387.099	-13.562
325.397	258.515	-13.236	346.719	278.416	-13.275	423.538	413.895	-14.019	405.071	387.099	-13.562
326.222	260.795	-13.276	347.326	280.860	-13.204	423.502	413.910	-14.022	405.071	387.091	-13.561
327.056	263.044	-13.236	347.923	283.399	-13.277	423.475	413.927	-14.042	405.054	387.091	-13.562
327.890	265.318	-13.159	348.512	285.847	-13.138	423.430	413.941	-14.030	405.054	387.091	-13.562
328.679	267.590	-13.102	349.154	288.349	-13.196	423.402	413.955	-14.017	405.044	387.090	-13.547
329.476	269.921	-13.091	349.708	290.834	-13.086	423.366	413.979	-14.021	405.036	387.091	-13.563
330.338	272.163	-13.221	350.359	293.288	-13.063	423.322	414.000	-14.008	405.027	387.090	-13.548
331.144	274.493	-13.129	350.877	295.783	-12.987	423.285	414.016	-14.013	405.018	387.099	-13.565
331.958	276.777	-13.056	351.519	298.269	-13.043	423.249	414.046	-14.016	405.018	387.106	-13.565
332.774	279.110	-13.006	352.046	300.782	-13.016	423.213	414.054	-14.020	405.009	387.105	-13.549
333.626	281.340	-13.120	352.633	303.257	-13.008	423.168	414.068	-14.008	404.991	387.105	-13.551
334.397	283.663	-13.119	353.269	305.726	-13.009	423.150	414.099	-14.010	404.990	387.113	-13.551
335.220	285.974	-13.057	353.783	308.270	-13.005	423.114	414.130	-14.014	404.982	387.114	-13.568
336.046	288.255	-12.989	354.457	310.677	-13.032	423.077	414.153	-14.018	404.973	387.113	-13.553
336.880	290.535	-13.034	354.973	313.182	-13.025	423.032	414.167	-14.006	404.965	387.121	-13.569
337.660	292.831	-13.049	355.600	315.627	-13.040	422.997	414.190	-14.009	404.955	387.120	-13.553
338.422	295.165	-13.026	356.146	318.078	-12.979	422.969	414.212	-13.996	404.947	387.121	-13.570
339.274	297.386	-13.008	356.726	320.577	-13.014	422.934	414.234	-13.999	404.947	387.121	-13.570
340.116	299.744	-12.968	357.317	323.004	-12.934	422.907	414.251	-14.017	404.938	387.127	-13.554
340.932	302.003	-12.948	357.870	325.509	-12.953	422.872	414.274	-14.020	404.929	387.136	-13.571
341.677	304.299	-12.924	358.454	327.931	-12.919	422.827	414.280	-14.009	404.912	387.136	-13.571
342.493	306.617	-12.933	358.999	330.403	-12.888	422.792	414.303	-14.012	404.912	387.136	-13.571
343.361	308.898	-12.909	359.609	332.849	-12.901	422.755	414.326	-14.016	404.903	387.142	-13.556
344.160	311.179	-12.819	360.127	335.262	-12.856	422.720	414.349	-14.019	404.895	387.135	-13.573
344.959	313.405	-12.793	360.737	337.754	-12.933	422.693	414.381	-14.037	404.886	387.144	-13.589
345.721	315.801	-12.829	361.283	340.143	-12.837	422.658	414.396	-14.041	404.877	387.143	-13.573
346.600	318.020	-12.884	361.837	342.606	-12.919	422.630	414.418	-14.028	404.868	387.159	-13.590
347.381	320.314	-12.789	362.412	345.018	-12.867	422.585	414.440	-14.016	404.859	387.158	-13.575
348.197	322.533	-12.731	362.949	347.465	-12.915	422.549	414.455	-14.019	404.841	387.158	-13.576
348.985	324.950	-12.812	363.522	349.876	-12.864	422.513	414.478	-14.023	404.841	387.158	-13.576
349.803	327.172	-12.877	364.042	352.353	-12.879	422.468	414.508	-14.011	404.832	387.165	-13.561
350.611	329.485	-12.828	364.607	354.788	-12.842	422.431	414.531	-14.015	404.823	387.173	-13.577
351.401	331.756	-12.747	365.136	357.241	-12.840	422.395	414.554	-14.019	404.814	387.182	-13.595
352.216	334.037	-12.782	365.683	359.686	-12.836	422.351	414.571	-14.039	404.805	387.181	-13.579
353.008	336.372	-12.824	366.221	362.112	-12.783	422.324	414.592	-14.025	404.797	387.174	-13.596
353.798	338.571	-12.808	366.761	364.535	-12.794	422.279	414.598	-14.014	404.788	387.181	-13.581
354.580	340.850	-12.740	367.312	366.914	-12.721	422.252	414.623	-14.033	404.779	387.182	-13.597
355.423	343.128	-12.719	367.841	369.371	-12.782	422.207	414.629	-14.021	404.779	387.190	-13.598
356.204	345.448	-12.778	368.390	371.765	-12.710	422.170	414.653	-14.025	404.769	387.196	-13.582
356.996	347.689	-12.756	368.929	374.182	-12.752	422.136	414.683	-14.028	404.761	387.190	-13.599
357.768	349.930	-12.736	369.466	376.594	-12.700	422.099	414.706	-14.032	404.743	387.189	-13.600
358.606	352.235	-12.691	370.045	378.929	-12.672	422.072	414.735	-14.017	404.726	387.189	-13.601
359.412	354.532	-12.767	370.566	381.346	-12.682	422.036	414.758	-14.021	404.725	387.205	-13.602
360.186	356.844	-12.740	371.115	383.740	-12.707	422.002	414.773	-14.024	404.709	387.207	-13.635
360.949	359.095	-12.733	371.631	386.100	-12.697	421.958	414.790	-14.043	404.709	387.199	-13.634
361.778	361.344	-12.703	372.196	388.499	-12.689	421.920	414.810	-14.016	404.691	387.214	-13.635
362.638	363.630	-12.741	372.684	390.897	-12.665	421.885	414.826	-14.019	404.682	387.213	-13.620
363.429	365.938	-12.712	373.273	393.248	-12.650	421.849	414.856	-14.022	404.683	387.223	-13.651
364.212	368.158	-12.701	373.722	395.662	-12.630	421.813	414.864	-14.026	404.665	387.222	-13.653
364.343	369.889	-12.685	373.637	397.390	-12.796	422.756	415.723	-13.997	405.549	388.082	-13.660
364.095	371.189	-12.677	373.259	398.830	-12.800	424.104	416.967	-13.950	406.910	389.344	-13.511
363.871	372.556	-12.655	372.933	400.185	-12.747	425.464	418.207	-13.947	408.223	390.562	-13.425
363.659	373.923	-12.645	372.522	401.611	-12.685	426.833	419.452	-13.925	409.528	391.806	-13.387
363.447	375.245	-12.634	372.157	403.002	-12.668	428.201	420.690	-13.900	410.888	393.096	-13.439
363.225	376.622	-12.608	371.838	404.336	-12.600	429.560	421.922	-13.892	412.231	394.411	-13.520
363.012	377.927	-12.632	371.441	405.747	-12.541	430.936	423.200	-13.880	413.518	395.624	-13.477
362.763	379.258	-12.624	371.080	407.135	-12.521	432.288	424.436	-13.917	414.849	396.900	-13.445
362.539	380.663	-12.665	370.733	408.544	-12.599	433.646	425.675	-13.903	416.247	398.192	-13.516
362.339	381.977	-12.700	370.376	409.909	-12.535	435.016	426.921	-13.900	417.563	399.433	-13.544
362.110	383.293	-12.723	369.968	411.292	-12.534	436.385	428.161	-13.896	418.876	400.685	-13.509
361.912	384.701	-12.650	369.631	412.724	-12.628	437.743	429.388	-13.843	420.189	401.940	-13.504
361.708	385.989	-12.657	369.286	414.062	-12.608	439.128	430.658	-13.834	421.532	403.246	-13.572
361.477	387.364	-12.649	368.911	415.491	-12.576	440.487	431.926	-13.875	422.882	404.505	-13.525
361.237	388.714	-12.689	368.547	416.849	-12.622	441.836	433.161	-13.833	424.201	405.737	-13.434
361.010	390.045	-12.708	368.203	418.259	-12.730	443.196	434.398	-13.804	425.533	407.014	-13.418
360.802	391.414	-12.718	367.817	419.633	-12.587	444.572	435.645	-13.804	426.866	408.277	-13.431
360.590	392.756	-12.643	367.447	420.992	-12.583	445.948	436.889	-13.769	428.226	409.573	-13.457
360.385	394.060	-12.650	367.119	422.401	-12.659	447.300	438.118	-13.750	429.519	410.816	-13.410
360.146	395.454	-12.625	366.716	423.753	-12.612	448.649	439.359	-13.764	430.850	412.066	-13.354
359.926	396.755	-12.631	366.353	425.122	-12.528	450.027	440.605	-13.754	432.219	413.351	-13.354
359.696	398.113	-12.653	366.016	426.556	-12.621	451.395	441.842	-13.728	433.541	414.594	-13.312
359.465	399.491	-12.643	365.645	427.878	-12.616	452.736	443.064	-13.720	434.851	415.852	-13.255
359.261	400.799	-12.682	365.233	429.287	-12.521	454.139	444.323	-13.685	436.168	417.108	-13.289
359.048	402.109	-12.673	364.924	430.631	-12.563	455.503	445.592	-13.656	437.518	418.381	-13.319
358.834	403.496	-12.631	364.552	432.022	-12.624	456.837	446.822	-13.658	438.879	419.677	-13.359
358.614	404.809	-12.604	364.122	433.419	-12.561	458.217	448.080	-13.699	440.171	420.907	-13.264
358.381	406.187	-12.629	363.805	434.740	-12.523	459.573	449.307	-13.649	441.513	422.166	-13.239
358.135	407.544	-12.650	363.468	436.151	-12.614	460.921	450.534	-13.612	442.855	423.462	-13.276
357.942	408.839	-12.671	363.049	437.514	-12.534	462.308	451.794	-13.598	444.183	424.714	-13.237
357.717	410.256	-12.647	362.687	438.828	-12.513	463.685	453.033	-13.602	445.499	425.977	-13.258
357.495	411.537	-12.590	362.374	440.302	-12.589	465.031	454.292	-13.561	446.842	427.248	-13.289
357.291	412.899	-12.564	361.976	441.612	-12.537	466.389	455.546	-13.563	448.162	428.492	-13.260
357.079	414.242	-12.585	361.547	443.001	-12.537	467.761	456.769	-13.574	449.517	429.787	-13.192
356.815	415.580	-12.639	361.247	444.409	-12.593	469.100	458.004	-13.543	450.832	431.015	-13.172
356.644	416.935	-12.646	360.902	445.750	-12.604	470.467	459.248	-13.521	452.137	432.276	-13.170
356.413	418.311	-12.637	360.435	447.110	-12.542	471.861	460.520	-13.543	453.505	433.587	-13.206
356.165	419.624	-12.596	360.113	448.475	-12.580	473.200	461.755	-13.506	454.816	434.844	-13.152
355.953	420.964	-12.585	359.800	449.850	-12.592	474.551	462.985	-13.513	456.142	436.109	-13.203
355.723	422.312	-12.574	359.372	451.181	-12.495	475.936	464.247	-13.513	457.465	437.369	-13.191
355.527	423.669	-12.629	359.013	452.539	-12.535	477.277	465.499	-13.501	458.809	438.633	-13.128
355.325	424.999	-12.665	358.680	453.970	-12.612	478.633	466.708	-13.453	460.149	439.873	-13.076
355.085	426.354	-12.672	358.292	455.264	-12.478	480.011	467.978	-13.463	461.485	441.131	-13.135
354.837	427.673	-12.599	357.891	456.638	-12.491	481.383	469.219	-13.410	462.796	442.382	-13.102
354.623	429.016	-12.590	357.562	458.016	-12.598	482.719	470.436	-13.361	464.143	443.681	-13.094
354.396	430.338	-12.577	357.212	459.351	-12.493	484.101	471.691	-13.395	465.468	444.965	-13.100
354.214	431.741	-12.601	356.782	460.694	-12.492	485.459	472.910	-13.368	466.763	446.206	-13.062
354.008	433.055	-12.682	356.455	462.071	-12.597	486.816	474.145	-13.341	468.105	447.462	-13.096
353.742	434.388	-12.673	356.093	463.432	-12.574	488.195	475.401	-13.371	469.479	448.750	-13.059
353.525	435.732	-12.570	355.688	464.753	-12.493	489.550	476.651	-13.341	470.799	450.008	-13.029
353.285	437.038	-12.577	355.354	466.089	-12.516	490.905	477.873	-13.274	472.095	451.220	-13.016
353.072	438.422	-12.598	354.991	467.531	-12.590	492.282	479.129	-13.300	473.439	452.513	-13.039
352.887	439.789	-12.634	354.579	468.815	-12.459	493.640	480.373	-13.294	474.766	453.789	-13.021
352.672	441.152	-12.668	354.243	470.125	-12.452	494.984	481.620	-13.242	476.076	455.041	-13.002
352.425	442.481	-12.615	353.852	471.598	-12.575	496.354	482.884	-13.278	477.419	456.317	-13.021
352.185	443.788	-12.557	353.489	472.873	-12.520	497.720	484.110	-13.248	478.752	457.570	-13.024
351.947	445.089	-12.594	353.099	474.202	-12.482	499.076	485.325	-13.202	480.087	458.860	-12.945
351.744	446.485	-12.599	352.736	475.619	-12.587	500.444	486.589	-13.233	481.414	460.099	-12.883
351.561	447.832	-12.666	352.384	476.921	-12.578	501.812	487.840	-13.229	482.749	461.353	-12.911
351.353	449.189	-12.684	351.981	478.249	-12.495	503.141	489.043	-13.199	484.083	462.615	-12.939
351.097	450.512	-12.584	351.646	479.625	-12.518	504.517	490.304	-13.206	485.392	463.873	-12.907
350.850	451.771	-12.509	351.286	480.962	-12.557	505.884	491.546	-13.197	486.711	465.147	-12.887
350.610	453.161	-12.579	350.862	482.296	-12.507	507.221	492.753	-13.142	488.071	466.449	-12.921
350.436	454.527	-12.598	350.519	483.643	-12.482	508.604	494.010	-13.126	489.375	467.682	-12.898
350.227	455.868	-12.680	350.183	485.008	-12.537	509.978	495.250	-13.093	490.687	468.914	-12.855
350.027	457.277	-12.673	349.772	486.346	-12.532	511.308	496.500	-13.083	492.063	470.203	-12.848
349.760	458.521	-12.536	349.404	487.647	-12.458	512.695	497.744	-13.091	493.394	471.475	-12.830
349.516	459.797	-12.491	349.067	489.025	-12.546	514.041	498.987	-13.074	494.695	472.709	-12.802
349.300	461.200	-12.578	348.664	490.351	-12.557	515.379	500.226	-13.040	496.027	473.977	-12.813
349.115	462.582	-12.646	348.297	491.666	-12.483	516.766	501.497	-13.076	497.372	475.265	-12.867
348.918	463.913	-12.711	347.949	493.039	-12.523	518.120	502.743	-13.035	498.661	476.520	-12.820
348.689	465.298	-12.688	347.557	494.370	-12.581	519.456	503.974	-12.996	499.968	477.790	-12.768
348.396	466.539	-12.535	347.171	495.674	-12.539	520.852	505.210	-13.007	501.350	479.080	-12.841
348.177	467.879	-12.507	346.811	497.060	-12.533	522.191	506.436	-12.995	502.661	480.324	-12.782
347.989	469.265	-12.576	346.449	498.359	-12.540	523.538	507.651	-12.963	503.960	481.543	-12.708
347.801	470.593	-12.657	346.088	499.683	-12.514	524.923	508.921	-12.987	505.337	482.845	-12.745
347.584	472.024	-12.712	345.711	501.057	-12.540	526.250	510.161	-12.957	506.658	484.125	-12.727
347.317	473.303	-12.671	345.349	502.360	-12.514	527.605	511.401	-12.935	507.949	485.350	-12.699
347.052	474.553	-12.532	344.953	503.781	-12.541	528.990	512.662	-12.952	509.298	486.627	-12.721
346.850	476.012	-12.493	344.576	505.054	-12.546	530.333	513.885	-12.913	510.632	487.903	-12.742
346.688	477.310	-12.558	344.233	506.357	-12.519	531.696	515.137	-12.866	511.921	489.154	-12.675
346.495	478.605	-12.652	343.837	507.740	-12.545	533.063	516.365	-12.881	513.248	490.435	-12.664
346.257	480.041	-12.709	343.466	509.044	-12.535	534.408	517.594	-12.835	514.618	491.706	-12.706
345.959	481.329	-12.654	343.107	510.322	-12.507	535.783	518.850	-12.827	515.926	492.962	-12.627
345.696	482.619	-12.546	342.738	511.686	-12.548	537.132	520.078	-12.839	517.250	494.203	-12.547
345.523	484.072	-12.521	342.369	513.031	-12.570	538.479	521.317	-12.819	518.632	495.493	-12.626
345.369	485.353	-12.569	341.997	514.300	-12.464	539.846	522.574	-12.823	519.913	496.713	-12.566
345.157	486.745	-12.622	341.612	515.649	-12.503	541.209	523.812	-12.795	521.206	497.969	-12.550
344.915	488.123	-12.671	341.269	516.990	-12.540	542.553	525.052	-12.770	522.597	499.291	-12.639
344.618	489.308	-12.584	340.899	518.265	-12.497	543.933	526.280	-12.734	523.884	500.530	-12.590
344.360	490.730	-12.546	340.486	519.615	-12.489	545.279	527.525	-12.703	525.155	501.769	-12.507
344.180	492.112	-12.547	340.153	520.955	-12.573	546.644	528.758	-12.698	526.536	503.073	-12.576
344.037	493.357	-12.610	339.779	522.297	-12.596	548.016	530.004	-12.674	527.858	504.348	-12.592
343.826	494.813	-12.651	339.367	523.576	-12.523	549.351	531.228	-12.658	529.137	505.574	-12.520
343.569	496.137	-12.635	339.045	524.894	-12.558	550.708	532.486	-12.665	530.492	506.864	-12.526
343.258	497.299	-12.577	338.659	526.276	-12.630	552.076	533.713	-12.684	531.843	508.138	-12.545
343.018	498.765	-12.571	338.248	527.517	-12.493	553.385	534.941	-12.650	533.137	509.357	-12.431
342.839	500.167	-12.603	337.910	528.818	-12.494	554.769	536.190	-12.661	534.486	510.639	-12.447
342.708	501.483	-12.626	337.551	530.204	-12.645	556.121	537.420	-12.631	535.837	511.895	-12.495
342.495	502.845	-12.615	337.132	531.494	-12.523	557.475	538.663	-12.596	537.108	513.143	-12.428
342.224	504.137	-12.533	336.780	532.734	-12.414	558.854	539.915	-12.570	538.448	514.435	-12.457
341.920	505.441	-12.512	336.456	534.186	-12.609	560.194	541.174	-12.521	539.789	515.711	-12.485
341.672	506.794	-12.565	336.070	535.450	-12.552	561.556	542.410	-12.495	541.076	516.951	-12.410
341.517	508.161	-12.626	335.663	536.655	-12.380	562.923	543.641	-12.497	542.412	518.230	-12.403
341.360	509.507	-12.621	335.343	538.057	-12.560	564.261	544.864	-12.490	543.780	519.513	-12.433
341.140	510.822	-12.592	335.008	539.389	-12.611	565.631	546.102	-12.472	545.049	520.736	-12.356
340.891	512.118	-12.444	334.546	540.624	-12.441	566.977	547.335	-12.442	546.394	522.012	-12.325
340.618	513.490	-12.457	334.212	541.974	-12.479	568.327	548.561	-12.393	547.742	523.304	-12.356
340.362	514.805	-12.557	333.924	543.374	-12.653	569.702	549.815	-12.434	549.038	524.542	-12.283
340.194	516.279	-12.625	333.466	544.539	-12.499	571.037	551.045	-12.418	550.367	525.806	-12.281
339.995	517.540	-12.646	333.068	545.919	-12.491	572.389	552.304	-12.395	551.722	527.086	-12.288
339.782	518.777	-12.602	332.793	547.218	-12.570	573.758	553.540	-12.366	553.002	528.321	-12.246
339.537	520.212	-12.441	332.393	548.514	-12.574	575.099	554.783	-12.327	554.335	529.586	-12.270
339.289	521.533	-12.449	331.938	549.808	-12.502	576.462	556.026	-12.311	555.691	530.878	-12.304
339.070	522.788	-12.548	331.687	551.122	-12.535	577.810	557.213	-12.295	556.960	532.126	-12.244
338.848	524.306	-12.648	331.314	552.468	-12.630	579.172	558.483	-12.228	558.279	533.390	-12.250
338.627	525.605	-12.704	330.820	553.691	-12.463	580.533	559.750	-12.242	559.628	534.675	-12.296
