NO_OF_FRAMES	260
NO_OF_CAMERAS	2
NO_OF_MARKERS	4
FREQUENCY	500
NO_OF_ANALOG	0
ANALOG_FREQUENCY	0
DESCRIPTION	--
TIME_STAMP	2024-11-06, 16:17:03.148	2329950.87932610
DATA_INCLUDED	3D
MARKER_NAMES	New 0000	New 0001	New 0002	New 0003
TRAJECTORY_TYPES	Measured	Measured	Measured	Measured
348.932	182.096	-13.566	378.263	169.292	-13.573	455.948	392.085	-13.848	425.777	380.994	-13.504
349.480	183.736	-13.501	378.930	171.230	-13.624	455.948	392.093	-13.849	425.768	381.009	-13.489
350.046	185.382	-13.564	379.668	173.254	-13.519	455.956	392.084	-13.831	425.758	381.026	-13.507
350.637	187.097	-13.453	380.389	175.324	-13.540	455.948	392.093	-13.849	425.758	381.049	-13.507
351.221	188.754	-13.544	381.039	177.253	-13.624	455.948	392.085	-13.848	425.740	381.064	-13.509
351.777	190.409	-13.430	381.748	179.289	-13.469	455.948	392.093	-13.849	425.730	381.102	-13.493
352.351	192.133	-13.540	382.458	181.390	-13.439	455.947	392.101	-13.849	425.720	381.124	-13.479
352.923	193.811	-13.421	383.081	183.339	-13.537	455.956	392.099	-13.831	425.711	381.148	-13.496
353.499	195.460	-13.468	383.791	185.357	-13.382	455.947	392.109	-13.849	425.702	381.188	-13.513
354.064	197.126	-13.433	384.497	187.393	-13.402	455.947	392.117	-13.850	425.692	381.210	-13.498
354.620	198.796	-13.381	385.136	189.371	-13.497	455.947	392.117	-13.850	425.683	381.242	-13.515
355.222	200.463	-13.440	385.834	191.463	-13.322	455.939	392.118	-13.867	425.664	381.273	-13.517
355.786	202.158	-13.371	386.506	193.491	-13.407	455.939	392.118	-13.867	425.664	381.304	-13.518
356.324	203.866	-13.409	387.180	195.479	-13.497	455.939	392.118	-13.867	425.663	381.335	-13.518
356.927	205.438	-13.312	387.861	197.519	-13.290	455.937	392.134	-13.868	425.644	381.358	-13.521
357.465	207.202	-13.418	388.483	199.544	-13.445	455.937	392.134	-13.868	425.644	381.381	-13.520
358.065	208.832	-13.344	389.170	201.527	-13.369	455.937	392.142	-13.869	425.643	381.405	-13.521
358.640	210.514	-13.415	389.810	203.536	-13.244	455.937	392.142	-13.869	425.634	381.429	-13.539
359.205	212.192	-13.317	390.443	205.547	-13.479	455.935	392.158	-13.870	425.633	381.453	-13.540
359.763	213.823	-13.385	391.117	207.606	-13.321	455.936	392.150	-13.869	425.623	381.485	-13.558
360.346	215.502	-13.316	391.691	209.574	-13.299	455.935	392.158	-13.870	425.612	381.500	-13.544
360.928	217.218	-13.373	392.363	211.579	-13.350	455.936	392.168	-13.903	425.612	381.526	-13.577
361.457	218.924	-13.329	393.012	213.628	-13.239	455.935	392.166	-13.871	425.612	381.542	-13.577
362.067	220.548	-13.273	393.609	215.601	-13.408	455.944	392.167	-13.886	425.602	381.556	-13.562
362.580	222.249	-13.300	394.266	217.627	-13.280	455.934	392.193	-13.905	425.602	381.582	-13.595
363.170	223.927	-13.240	394.830	219.636	-13.272	455.943	392.183	-13.887	425.593	381.603	-13.579
363.729	225.563	-13.302	395.454	221.755	-13.302	455.943	392.183	-13.887	425.592	381.619	-13.580
364.337	227.260	-13.252	396.093	223.812	-13.142	455.934	392.190	-13.872	425.584	381.651	-13.596
364.868	228.916	-13.270	396.742	225.850	-13.362	455.926	392.191	-13.889	425.575	381.672	-13.580
365.460	230.573	-13.207	397.330	227.815	-13.206	455.934	392.190	-13.872	425.574	381.696	-13.580
366.017	232.246	-13.248	397.895	229.916	-13.291	455.933	392.205	-13.872	425.574	381.734	-13.580
366.591	233.959	-13.279	398.528	231.923	-13.239	455.935	392.189	-13.870	425.556	381.757	-13.582
367.157	235.576	-13.199	399.082	233.927	-13.187	455.943	392.198	-13.886	425.556	381.780	-13.581
367.740	237.289	-13.255	399.692	235.998	-13.276	455.944	392.198	-13.885	425.546	381.810	-13.567
368.331	238.946	-13.161	400.281	237.930	-13.156	455.943	392.214	-13.886	425.536	381.839	-13.551
368.873	240.573	-13.187	400.847	240.015	-13.234	455.944	392.206	-13.886	425.536	381.863	-13.551
369.472	242.254	-13.149	401.444	241.981	-13.123	455.943	392.221	-13.886	425.517	381.886	-13.553
370.028	243.973	-13.116	401.946	244.064	-13.129	455.943	392.229	-13.885	425.517	381.917	-13.553
370.623	245.573	-13.144	402.561	246.084	-13.077	455.943	392.229	-13.885	425.506	381.939	-13.539
371.158	247.304	-13.019	403.099	248.153	-13.078	455.943	392.229	-13.885	425.497	381.964	-13.557
371.799	248.929	-13.194	403.689	250.226	-13.106	455.951	392.236	-13.869	425.496	381.995	-13.557
372.317	250.605	-12.965	404.237	252.213	-13.124	455.943	392.244	-13.886	425.487	382.027	-13.574
372.928	252.329	-13.161	404.808	254.298	-13.090	455.951	392.251	-13.868	425.477	382.057	-13.560
373.473	254.024	-12.985	405.356	256.263	-13.110	455.950	392.267	-13.869	425.477	382.080	-13.559
374.079	255.658	-13.152	405.912	258.331	-13.104	455.943	392.260	-13.886	425.476	382.111	-13.560
374.577	257.413	-12.999	406.432	260.302	-13.112	455.951	392.259	-13.869	425.467	382.143	-13.577
375.206	259.072	-13.060	406.959	262.368	-13.026	455.942	392.276	-13.886	425.456	382.165	-13.563
375.720	260.741	-13.071	407.498	264.346	-13.095	455.951	392.266	-13.868	425.456	382.196	-13.563
376.307	262.508	-13.010	407.988	266.427	-12.948	455.960	392.276	-13.884	425.455	382.228	-13.564
376.832	264.133	-13.071	408.555	268.432	-13.060	455.951	392.266	-13.868	425.455	382.251	-13.563
377.414	265.802	-12.985	409.036	270.472	-12.900	455.961	392.275	-13.883	425.454	382.274	-13.564
377.946	267.539	-13.126	409.597	272.478	-13.056	455.960	392.283	-13.883	425.453	382.297	-13.564
378.512	269.070	-12.981	410.096	274.526	-12.927	455.969	392.274	-13.866	425.452	382.313	-13.565
379.115	270.814	-13.115	410.619	276.531	-13.022	455.961	392.275	-13.883	425.444	382.330	-13.582
379.631	272.542	-12.955	411.120	278.546	-12.924	455.969	392.281	-13.865	425.443	382.361	-13.583
380.273	274.182	-13.119	411.615	280.597	-12.972	455.969	392.281	-13.865	425.432	382.383	-13.568
380.757	275.853	-12.989	412.115	282.603	-12.874	455.969	392.281	-13.865	425.431	382.415	-13.570
381.420	277.516	-12.980	412.612	284.628	-12.987	455.968	392.290	-13.866	425.430	382.438	-13.570
381.909	279.175	-13.073	413.104	286.609	-12.838	455.970	392.273	-13.865	425.421	382.478	-13.588
382.543	280.861	-12.985	413.604	288.604	-12.981	455.969	392.289	-13.865	425.420	382.493	-13.588
383.040	282.549	-13.057	414.076	290.621	-12.835	455.978	392.291	-13.881	425.411	382.515	-13.572
383.631	284.187	-12.954	414.574	292.624	-12.946	455.978	392.298	-13.880	425.410	382.554	-13.572
384.181	285.869	-13.027	415.013	294.640	-12.833	455.978	392.298	-13.880	425.402	382.578	-13.589
384.763	287.564	-12.900	415.528	296.635	-12.910	455.978	392.298	-13.880	425.392	382.608	-13.574
385.312	289.274	-13.008	415.940	298.683	-12.850	455.970	392.315	-13.898	425.391	382.639	-13.575
385.924	290.826	-12.966	416.484	300.660	-12.936	455.978	392.321	-13.880	425.381	382.668	-13.559
386.463	292.585	-12.951	416.860	302.695	-12.847	455.978	392.314	-13.881	425.373	382.708	-13.576
387.029	294.199	-12.962	417.403	304.647	-12.902	455.987	392.322	-13.895	425.363	382.722	-13.561
387.621	295.911	-12.882	417.781	306.717	-12.874	455.970	392.322	-13.897	425.353	382.744	-13.545
388.173	297.496	-12.988	418.257	308.669	-12.791	455.969	392.338	-13.897	425.344	382.776	-13.562
388.752	299.331	-12.827	418.729	310.682	-12.884	455.987	392.338	-13.895	425.343	382.800	-13.563
389.332	300.839	-12.945	419.141	312.703	-12.755	455.987	392.345	-13.895	425.335	382.824	-13.580
389.897	302.543	-12.884	419.631	314.678	-12.847	455.987	392.354	-13.895	425.325	382.854	-13.565
390.446	304.251	-12.920	419.992	316.716	-12.788	455.987	392.361	-13.895	425.324	382.877	-13.566
391.048	305.862	-12.823	420.498	318.695	-12.812	455.987	392.353	-13.894	425.323	382.900	-13.566
391.577	307.600	-12.864	420.862	320.661	-12.817	455.996	392.359	-13.877	425.323	382.923	-13.566
392.208	309.176	-12.877	421.337	322.701	-12.764	455.987	392.368	-13.894	425.314	382.955	-13.583
392.731	310.881	-12.829	421.709	324.689	-12.786	455.987	392.368	-13.894	425.312	382.987	-13.584
393.359	312.521	-12.914	422.135	326.662	-12.766	456.005	392.361	-13.892	425.302	383.017	-13.570
393.879	314.222	-12.769	422.597	328.651	-12.777	456.005	392.376	-13.892	425.294	383.041	-13.586
394.485	315.870	-12.863	422.939	330.667	-12.754	456.005	392.369	-13.892	425.302	383.055	-13.570
395.011	317.587	-12.740	423.422	332.570	-12.727	456.004	392.384	-13.893	425.293	383.087	-13.587
395.617	319.164	-12.800	423.784	334.578	-12.698	456.004	392.384	-13.893	425.282	383.117	-13.572
396.182	320.877	-12.736	424.183	336.546	-12.698	456.004	392.392	-13.892	425.282	383.133	-13.572
396.759	322.530	-12.782	424.637	338.494	-12.692	456.005	392.376	-13.892	425.281	383.164	-13.573
397.370	324.143	-12.729	424.965	340.489	-12.665	456.004	392.400	-13.893	425.281	383.179	-13.573
397.882	325.871	-12.733	425.418	342.471	-12.692	456.013	392.398	-13.875	425.271	383.209	-13.558
398.516	327.473	-12.737	425.772	344.431	-12.648	456.013	392.398	-13.875	425.269	383.241	-13.560
399.043	329.150	-12.644	426.173	346.401	-12.678	456.013	392.405	-13.874	425.268	383.272	-13.560
399.645	330.843	-12.706	426.581	348.386	-12.625	456.020	392.412	-13.858	425.267	383.303	-13.561
400.187	332.454	-12.620	426.907	350.351	-12.602	456.030	392.406	-13.872	425.249	383.334	-13.563
400.790	334.141	-12.679	427.355	352.268	-12.608	456.031	392.413	-13.872	425.257	383.356	-13.546
401.347	335.799	-12.628	427.676	354.234	-12.563	456.030	392.421	-13.872	425.246	383.401	-13.531
401.953	337.421	-12.650	428.031	356.178	-12.583	456.030	392.429	-13.872	425.237	383.434	-13.548
402.515	339.164	-12.618	428.452	358.153	-12.609	456.030	392.437	-13.873	425.236	383.465	-13.549
402.586	340.206	-12.639	428.404	359.353	-12.591	456.752	393.305	-13.919	425.846	384.471	-13.403
402.399	340.900	-12.611	428.096	360.217	-12.600	457.784	394.527	-13.894	426.791	385.979	-13.442
402.249	341.625	-12.611	427.799	361.063	-12.556	458.785	395.781	-13.859	427.745	387.513	-13.528
402.058	342.395	-12.586	427.565	361.926	-12.554	459.804	397.079	-13.886	428.699	389.024	-13.514
401.887	343.160	-12.625	427.357	362.870	-12.597	460.796	398.384	-13.901	429.669	390.520	-13.499
401.727	343.902	-12.609	427.097	363.646	-12.549	461.790	399.641	-13.912	430.650	392.047	-13.497
401.550	344.589	-12.562	426.789	364.523	-12.524	462.823	400.839	-13.879	431.630	393.542	-13.461
401.387	345.370	-12.583	426.537	365.432	-12.591	463.853	402.057	-13.814	432.572	395.067	-13.431
401.205	346.162	-12.574	426.324	366.258	-12.616	464.874	403.255	-13.768	433.527	396.572	-13.443
401.030	346.845	-12.591	426.045	367.105	-12.603	465.872	404.620	-13.761	434.450	398.150	-13.480
400.852	347.585	-12.611	425.762	367.974	-12.561	466.860	405.908	-13.738	435.415	399.622	-13.472
400.716	348.343	-12.646	425.465	368.829	-12.549	467.871	407.134	-13.741	436.374	401.137	-13.404
400.535	349.129	-12.637	425.206	369.690	-12.598	468.870	408.409	-13.738	437.353	402.631	-13.362
400.368	349.859	-12.636	425.007	370.640	-12.623	469.887	409.570	-13.732	438.331	404.117	-13.321
400.198	350.535	-12.574	424.710	371.431	-12.579	470.924	410.767	-13.677	439.310	405.626	-13.278
400.037	351.309	-12.593	424.397	372.245	-12.535	471.944	412.060	-13.655	440.302	407.107	-13.278
399.846	352.086	-12.568	424.171	373.152	-12.582	472.941	413.409	-13.708	441.243	408.696	-13.339
399.679	352.807	-12.601	423.923	373.999	-12.676	473.948	414.701	-13.673	442.207	410.206	-13.324
399.501	353.532	-12.621	423.641	374.812	-12.599	474.982	415.885	-13.659	443.170	411.735	-13.343
399.356	354.281	-12.608	423.368	375.688	-12.538	476.006	417.124	-13.663	444.177	413.232	-13.339
399.175	355.060	-12.631	423.100	376.513	-12.538	477.014	418.339	-13.667	445.166	414.748	-13.303
399.026	355.765	-12.596	422.843	377.381	-12.616	478.044	419.547	-13.653	446.188	416.266	-13.265
398.864	356.474	-12.584	422.597	378.269	-12.600	479.049	420.955	-13.681	447.205	417.742	-13.273
398.702	357.247	-12.604	422.266	379.090	-12.558	480.064	422.200	-13.623	448.194	419.284	-13.267
398.520	358.040	-12.594	422.003	379.936	-12.510	481.102	423.460	-13.655	449.217	420.808	-13.290
398.327	358.744	-12.579	421.785	380.850	-12.540	482.138	424.778	-13.628	450.154	422.345	-13.388
398.130	359.484	-12.568	421.518	381.672	-12.604	483.129	425.876	-13.586	451.175	423.867	-13.420
397.958	360.257	-12.573	421.176	382.536	-12.581	484.181	427.100	-13.591	452.186	425.395	-13.394
397.803	361.027	-12.578	420.902	383.363	-12.487	485.216	428.460	-13.595	453.203	426.892	-13.395
397.663	361.718	-12.592	420.664	384.174	-12.530	486.202	429.604	-13.589	454.243	428.425	-13.344
397.520	362.436	-12.577	420.439	385.073	-12.574	487.228	431.039	-13.600	455.259	429.903	-13.310
397.331	363.200	-12.583	420.131	385.926	-12.515	488.251	432.319	-13.623	456.324	431.350	-13.282
397.158	363.985	-12.556	419.800	386.734	-12.504	489.270	433.438	-13.619	457.306	432.973	-13.272
396.976	364.684	-12.521	419.583	387.638	-12.499	490.319	434.818	-13.626	458.273	434.463	-13.304
396.770	365.425	-12.561	419.325	388.489	-12.545	491.317	435.960	-13.557	459.280	436.036	-13.416
396.624	366.205	-12.548	419.032	389.299	-12.562	492.336	437.211	-13.513	460.267	437.520	-13.299
396.455	366.938	-12.550	418.721	390.135	-12.472	493.381	438.563	-13.522	461.314	439.001	-13.300
396.306	367.637	-12.548	418.445	390.972	-12.520	494.375	439.689	-13.489	462.353	440.571	-13.306
396.143	368.391	-12.537	418.223	391.834	-12.595	495.375	441.022	-13.478	463.349	442.022	-13.168
395.963	369.148	-12.557	417.942	392.693	-12.583	496.394	442.334	-13.539	464.414	443.544	-13.195
395.793	369.900	-12.560	417.608	393.524	-12.475	497.382	443.452	-13.518	465.429	445.067	-13.108
395.607	370.611	-12.530	417.342	394.354	-12.537	498.429	444.779	-13.518	466.457	446.528	-13.073
395.437	371.400	-12.565	417.110	395.224	-12.531	499.437	446.016	-13.486	467.463	448.113	-13.253
395.266	372.133	-12.570	416.824	396.089	-12.530	500.434	447.192	-13.442	468.436	449.590	-13.183
395.114	372.873	-12.538	416.513	396.886	-12.442	501.468	448.519	-13.428	469.484	451.142	-13.206
394.956	373.594	-12.553	416.215	397.751	-12.429	502.477	449.715	-13.426	470.525	452.587	-13.203
394.765	374.353	-12.496	415.959	398.600	-12.538	503.473	451.037	-13.421	471.561	454.088	-13.137
394.583	375.110	-12.486	415.715	399.445	-12.553	504.457	452.279	-13.436	472.636	455.693	-13.100
394.431	375.844	-12.488	415.373	400.228	-12.429	505.486	453.487	-13.425	473.664	457.110	-13.048
394.255	376.557	-12.472	415.115	401.081	-12.473	506.488	454.769	-13.400	474.727	458.627	-12.989
394.094	377.342	-12.555	414.854	401.932	-12.489	507.513	456.006	-13.357	475.781	460.209	-13.032
393.921	378.072	-12.529	414.560	402.814	-12.537	508.544	457.256	-13.338	476.788	461.623	-13.093
393.762	378.806	-12.512	414.259	403.614	-12.461	509.538	458.494	-13.328	477.812	463.209	-13.115
393.577	379.540	-12.513	413.973	404.443	-12.428	510.548	459.718	-13.316	478.838	464.715	-13.067
393.394	380.293	-12.440	413.714	405.315	-12.506	511.555	461.028	-13.347	479.953	466.200	-13.139
393.240	381.060	-12.475	413.466	406.136	-12.533	512.571	462.243	-13.316	481.012	467.772	-13.052
393.062	381.787	-12.461	413.140	406.969	-12.442	513.590	463.501	-13.281	482.068	469.234	-13.001
392.921	382.525	-12.475	412.824	407.804	-12.430	514.617	464.777	-13.259	483.185	470.758	-13.031
392.743	383.302	-12.560	412.565	408.652	-12.509	515.627	465.999	-13.241	484.214	472.238	-12.932
392.561	384.023	-12.517	412.297	409.512	-12.538	516.611	467.234	-13.208	485.293	473.756	-12.968
392.385	384.757	-12.502	411.983	410.300	-12.460	517.643	468.508	-13.246	486.351	475.289	-13.020
392.198	385.457	-12.439	411.695	411.104	-12.460	518.647	469.753	-13.240	487.365	476.744	-12.985
392.015	386.236	-12.430	411.430	411.984	-12.487	519.666	471.010	-13.197	488.437	478.263	-13.034
391.872	386.997	-12.479	411.161	412.841	-12.484	520.687	472.260	-13.219	489.498	479.739	-13.036
391.714	387.694	-12.462	410.838	413.671	-12.455	521.680	473.488	-13.196	490.563	481.243	-12.956
391.553	388.479	-12.512	410.529	414.487	-12.460	522.711	474.749	-13.195	491.649	482.751	-12.968
391.366	389.238	-12.547	410.272	415.286	-12.505	523.705	475.989	-13.203	492.707	484.218	-12.902
391.175	389.960	-12.522	409.997	416.112	-12.517	524.705	477.243	-13.193	493.793	485.721	-12.878
391.007	390.676	-12.458	409.672	416.932	-12.456	525.733	478.500	-13.157	494.888	487.242	-12.869
390.802	391.394	-12.429	409.384	417.768	-12.456	526.735	479.760	-13.143	495.967	488.730	-12.859
390.657	392.176	-12.448	409.116	418.620	-12.485	527.748	481.013	-13.141	497.032	490.222	-12.882
390.495	392.919	-12.467	408.812	419.480	-12.517	528.749	482.242	-13.125	498.093	491.708	-12.906
390.345	393.622	-12.433	408.496	420.284	-12.505	529.755	483.489	-13.137	499.191	493.226	-12.888
390.194	394.414	-12.466	408.231	421.044	-12.466	530.775	484.739	-13.114	500.274	494.707	-12.860
390.006	395.124	-12.470	407.945	421.923	-12.464	531.793	485.983	-13.092	501.360	496.208	-12.827
389.815	395.889	-12.476	407.649	422.766	-12.480	532.806	487.259	-13.084	502.469	497.701	-12.852
389.639	396.575	-12.428	407.335	423.605	-12.465	533.815	488.490	-13.078	503.533	499.163	-12.756
389.470	397.334	-12.429	407.047	424.412	-12.465	534.818	489.768	-13.087	504.656	500.704	-12.778
389.333	398.139	-12.430	406.803	425.204	-12.478	535.829	491.013	-13.077	505.788	502.234	-12.780
389.145	398.875	-12.467	406.484	426.027	-12.476	536.842	492.233	-13.064	506.875	503.687	-12.739
388.986	399.592	-12.418	406.177	426.860	-12.446	537.854	493.515	-13.051	507.993	505.224	-12.806
388.806	400.348	-12.406	405.884	427.695	-12.458	538.855	494.755	-13.057	509.097	506.716	-12.759
388.617	401.075	-12.410	405.605	428.552	-12.441	539.872	495.992	-12.992	510.192	508.208	-12.764
388.455	401.850	-12.429	405.305	429.391	-12.394	540.883	497.236	-12.976	511.273	509.705	-12.768
388.296	402.545	-12.413	404.997	430.173	-12.440	541.886	498.482	-12.978	512.356	511.152	-12.724
388.128	403.299	-12.445	404.709	430.967	-12.406	542.896	499.749	-12.960	513.471	512.649	-12.719
387.972	404.103	-12.449	404.406	431.798	-12.436	543.907	500.984	-12.940	514.573	514.125	-12.667
387.783	404.843	-12.420	404.109	432.641	-12.388	544.926	502.245	-12.935	515.683	515.596	-12.631
387.636	405.545	-12.384	403.804	433.482	-12.387	545.910	503.470	-12.902	516.830	517.104	-12.661
387.437	406.303	-12.374	403.511	434.281	-12.465	546.923	504.731	-12.912	517.964	518.574	-12.681
387.258	407.032	-12.393	403.212	435.097	-12.482	547.927	505.975	-12.905	519.100	520.087	-12.695
387.096	407.799	-12.411	402.929	435.852	-12.412	548.942	507.209	-12.864	520.230	521.561	-12.681
386.955	408.495	-12.393	402.624	436.694	-12.412	549.943	508.485	-12.858	521.341	523.022	-12.635
386.769	409.256	-12.427	402.313	437.498	-12.425	550.943	509.717	-12.817	522.448	524.498	-12.603
386.614	410.044	-12.431	402.009	438.361	-12.455	551.967	510.971	-12.833	523.533	525.960	-12.611
386.434	410.778	-12.418	401.738	439.181	-12.454	552.925	512.219	-12.850	524.631	527.423	-12.595
386.269	411.483	-12.415	401.460	439.935	-12.401	553.938	513.471	-12.851	525.791	528.925	-12.615
386.087	412.239	-12.372	401.129	440.736	-12.386	554.964	514.705	-12.817	526.922	530.409	-12.624
385.900	412.999	-12.373	400.800	441.535	-12.368	555.955	515.947	-12.790	528.054	531.903	-12.598
385.729	413.766	-12.409	400.524	442.421	-12.412	556.975	517.204	-12.769	529.185	533.371	-12.604
385.587	414.471	-12.424	400.259	443.236	-12.395	557.961	518.459	-12.789	530.326	534.828	-12.589
385.400	415.211	-12.394	399.940	443.947	-12.392	558.969	519.692	-12.755	531.452	536.318	-12.530
385.262	415.969	-12.397	399.606	444.762	-12.346	559.973	520.955	-12.768	532.590	537.763	-12.481
385.082	416.719	-12.384	399.332	445.625	-12.420	560.972	522.198	-12.750	533.749	539.232	-12.491
384.906	417.416	-12.367	399.025	446.452	-12.387	561.974	523.468	-12.763	534.871	540.735	-12.476
384.725	418.188	-12.355	398.736	447.270	-12.354	562.986	524.720	-12.755	536.011	542.165	-12.489
384.556	418.948	-12.356	398.406	448.034	-12.402	563.967	525.993	-12.773	537.164	543.643	-12.477
384.377	419.731	-12.374	398.120	448.914	-12.462	564.987	527.240	-12.743	538.309	545.089	-12.437
384.217	420.441	-12.358	397.806	449.671	-12.380	566.006	528.464	-12.712	539.449	546.610	-12.479
384.039	421.193	-12.376	397.481	450.481	-12.283	567.007	529.704	-12.685	540.612	548.073	-12.511
