NO_OF_FRAMES	344
NO_OF_CAMERAS	2
NO_OF_MARKERS	4
FREQUENCY	500
NO_OF_ANALOG	0
ANALOG_FREQUENCY	0
DESCRIPTION	--
TIME_STAMP	2024-11-06, 16:37:40.068	2331187.79406490
DATA_INCLUDED	3D
MARKER_NAMES	New 0000	New 0001	New 0002	New 0003
TRAJECTORY_TYPES	Mixed	Measured	Measured	Mixed
238.781	110.414	-14.512	265.789	93.186	-14.534	439.736	342.821	-14.247	462.622	365.104	-13.533
239.723	111.750	-14.503	266.400	94.006	-14.515	439.728	342.796	-14.231	462.605	365.088	-13.534
240.681	113.032	-14.557	267.015	94.865	-14.508	439.711	342.765	-14.233	462.588	365.080	-13.535
241.578	114.354	-14.522	267.621	95.735	-14.551	439.694	342.741	-14.234	462.572	365.079	-13.537
242.467	115.698	-14.404	268.184	96.580	-14.475	439.678	342.718	-14.235	462.537	365.063	-13.541
243.419	117.004	-14.445	268.816	97.464	-14.535	439.660	342.692	-14.204	462.521	365.047	-13.542
244.359	118.320	-14.425	269.344	98.339	-14.424	439.635	342.669	-14.222	462.495	365.055	-13.560
245.312	119.578	-14.463	269.915	99.223	-14.464	439.626	342.653	-14.206	462.479	365.031	-13.562
246.205	120.983	-14.353	270.479	100.073	-14.422	439.609	342.629	-14.207	462.452	365.030	-13.549
247.160	122.275	-14.327	271.060	100.930	-14.412	439.592	342.605	-14.208	462.427	365.015	-13.568
248.065	123.588	-14.268	271.592	101.884	-14.381	439.565	342.589	-14.196	462.409	365.000	-13.570
249.052	124.861	-14.370	272.121	102.726	-14.335	439.557	342.565	-14.180	462.383	364.983	-13.557
249.961	126.264	-14.321	272.646	103.646	-14.386	439.539	342.542	-14.182	462.348	364.975	-13.562
250.860	127.557	-14.316	273.135	104.593	-14.303	439.523	342.518	-14.183	462.311	364.950	-13.535
251.742	128.875	-14.241	273.700	105.471	-14.393	439.496	342.509	-14.170	462.284	364.926	-13.523
252.689	130.142	-14.326	274.138	106.374	-14.243	439.479	342.478	-14.172	462.248	364.893	-13.496
253.636	131.521	-14.350	274.731	107.360	-14.426	439.452	342.462	-14.159	462.204	364.869	-13.486
254.587	132.847	-14.310	275.158	108.300	-14.290	439.444	342.430	-14.143	462.177	364.837	-13.474
255.480	134.087	-14.181	275.659	109.237	-14.294	439.418	342.415	-14.162	462.150	364.813	-13.462
256.395	135.434	-14.139	276.135	110.226	-14.318	439.408	342.391	-14.148	462.113	364.788	-13.435
257.386	136.753	-14.173	276.618	111.192	-14.255	439.392	342.367	-14.149	462.079	364.772	-13.439
258.345	138.044	-14.209	277.069	112.129	-14.262	439.366	342.335	-14.135	462.070	364.740	-13.424
259.253	139.378	-14.148	277.551	113.114	-14.232	439.349	342.304	-14.136	462.035	364.724	-13.428
260.107	140.650	-14.044	278.009	114.113	-14.254	439.332	342.265	-14.138	462.018	364.709	-13.430
261.027	142.004	-14.104	278.456	115.051	-14.253	439.307	342.235	-14.156	462.001	364.700	-13.432
261.985	143.322	-14.204	278.863	116.073	-14.211	439.298	342.218	-14.141	461.985	364.684	-13.432
262.908	144.582	-14.229	279.366	117.087	-14.321	439.263	342.195	-14.145	461.967	364.676	-13.435
263.816	145.913	-14.129	279.722	118.085	-14.181	439.255	342.172	-14.162	461.943	364.653	-13.453
264.689	147.206	-14.027	280.123	119.052	-14.223	439.239	342.141	-14.163	461.926	364.645	-13.455
265.636	148.513	-14.066	280.613	120.147	-14.311	439.221	342.133	-14.166	461.918	364.631	-13.472
266.621	149.876	-14.118	280.927	121.116	-14.187	439.194	342.109	-14.153	461.893	364.624	-13.492
267.543	151.180	-14.138	281.394	122.163	-14.295	439.178	342.088	-14.187	461.875	364.616	-13.494
268.414	152.464	-14.093	281.780	123.281	-14.316	439.151	342.071	-14.174	461.840	364.600	-13.498
269.284	153.843	-14.019	282.102	124.289	-14.144	439.134	342.048	-14.176	461.823	364.585	-13.500
270.207	155.112	-14.071	282.568	125.430	-14.289	439.118	342.018	-14.209	461.797	364.578	-13.520
271.189	156.430	-14.172	282.962	126.545	-14.325	439.092	342.002	-14.196	461.762	364.563	-13.525
272.132	157.731	-14.199	283.261	127.648	-14.148	439.076	341.988	-14.229	461.735	364.538	-13.513
272.994	159.049	-14.033	283.683	128.731	-14.237	439.049	341.956	-14.216	461.708	364.514	-13.501
273.875	160.348	-13.936	284.044	129.825	-14.274	439.033	341.932	-14.217	461.673	364.499	-13.506
274.840	161.702	-14.006	284.411	130.949	-14.228	439.008	341.909	-14.235	461.646	364.467	-13.494
275.807	162.974	-14.104	284.772	132.105	-14.270	438.991	341.860	-14.203	461.611	364.444	-13.499
276.694	164.249	-14.112	285.159	133.214	-14.260	438.966	341.845	-14.221	461.585	364.412	-13.486
277.539	165.587	-13.981	285.481	134.408	-14.197	438.949	341.829	-14.222	461.552	364.398	-13.522
278.428	166.885	-13.927	285.856	135.582	-14.265	438.932	341.797	-14.223	461.526	364.373	-13.508
279.411	168.187	-13.989	286.224	136.721	-14.219	438.916	341.774	-14.224	461.500	364.366	-13.528
280.385	169.560	-14.068	286.547	137.890	-14.223	438.898	341.750	-14.226	461.466	364.351	-13.532
281.290	170.878	-13.980	286.913	139.150	-14.247	438.882	341.727	-14.227	461.439	364.326	-13.519
282.157	172.061	-13.846	287.279	140.342	-14.200	438.856	341.704	-14.246	461.414	364.318	-13.537
283.052	173.454	-13.838	287.574	141.540	-14.185	438.839	341.688	-14.247	461.389	364.304	-13.556
284.023	174.811	-13.938	287.956	142.821	-14.241	438.822	341.665	-14.248	461.363	364.294	-13.543
284.963	176.090	-14.038	288.303	144.109	-14.197	438.805	341.641	-14.250	461.328	364.287	-13.548
285.838	177.297	-13.985	288.617	145.285	-14.216	438.778	341.617	-14.237	461.311	364.270	-13.549
286.724	178.685	-13.894	288.992	146.553	-14.159	438.771	341.602	-14.254	461.276	364.262	-13.554
287.646	180.009	-13.830	289.280	147.947	-14.108	438.744	341.594	-14.241	461.241	364.262	-13.558
288.595	181.322	-13.849	289.629	149.144	-14.162	438.727	341.563	-14.243	461.206	364.246	-13.562
289.511	182.607	-13.839	290.070	150.344	-14.162	438.709	341.539	-14.245	461.170	364.237	-13.535
290.415	183.900	-13.803	290.303	151.801	-14.075	438.683	341.523	-14.231	461.161	364.212	-13.520
291.329	185.216	-13.754	290.604	153.089	-14.008	438.657	341.491	-14.218	461.117	364.188	-13.510
292.217	186.534	-13.756	291.125	154.281	-14.159	438.640	341.467	-14.219	461.090	364.164	-13.497
293.140	187.808	-13.751	291.350	155.706	-14.122	438.623	341.436	-14.220	461.046	364.131	-13.486
294.073	189.071	-13.699	291.604	157.078	-13.937	438.605	341.411	-14.190	461.019	364.107	-13.474
294.967	190.420	-13.744	292.121	158.372	-14.121	438.578	341.386	-14.176	461.001	364.074	-13.444
295.899	191.725	-13.720	292.409	159.746	-14.130	438.552	341.354	-14.162	460.957	364.050	-13.434
296.796	193.004	-13.632	292.629	161.183	-13.856	438.526	341.330	-14.148	460.930	364.025	-13.421
297.702	194.266	-13.660	293.088	162.570	-13.996	438.509	341.298	-14.150	460.895	364.002	-13.426
298.579	195.620	-13.601	293.449	163.921	-14.144	438.492	341.283	-14.151	460.869	363.970	-13.413
299.520	196.909	-13.624	293.662	165.306	-13.855	438.466	341.243	-14.138	460.844	363.955	-13.432
300.433	198.222	-13.664	294.073	166.734	-13.906	438.439	341.211	-14.126	460.808	363.947	-13.437
301.304	199.512	-13.623	294.501	168.232	-14.187	438.414	341.181	-14.144	460.784	363.924	-13.455
302.182	200.810	-13.559	294.719	169.482	-13.902	438.379	341.157	-14.148	460.766	363.924	-13.457
303.069	202.116	-13.579	295.075	171.064	-13.895	438.362	341.134	-14.150	460.741	363.909	-13.476
304.017	203.438	-13.648	295.512	172.495	-14.118	438.327	341.118	-14.154	460.716	363.902	-13.495
304.921	204.772	-13.665	295.810	173.980	-13.965	438.309	341.095	-14.156	460.690	363.903	-13.515
305.807	206.107	-13.583	296.118	175.400	-13.889	438.275	341.064	-14.159	460.665	363.881	-13.535
306.659	207.414	-13.538	296.534	177.001	-14.022	438.241	341.050	-14.195	460.639	363.882	-13.554
307.592	208.679	-13.536	296.868	178.423	-13.961	438.223	341.019	-14.198	460.614	363.867	-13.573
308.496	210.016	-13.616	297.219	179.929	-13.876	438.198	340.996	-14.217	460.580	363.851	-13.577
309.408	211.365	-13.613	297.644	181.464	-14.015	438.163	340.973	-14.221	460.553	363.827	-13.565
310.270	212.625	-13.544	297.935	182.936	-13.916	438.146	340.950	-14.223	460.510	363.804	-13.586
311.140	213.878	-13.493	298.344	184.495	-13.937	438.121	340.919	-14.241	460.483	363.780	-13.574
312.043	215.251	-13.470	298.692	186.031	-13.940	438.094	340.895	-14.228	460.448	363.757	-13.579
313.002	216.510	-13.546	299.102	187.583	-13.933	438.077	340.864	-14.229	460.404	363.725	-13.569
313.889	217.805	-13.585	299.494	189.125	-13.887	438.051	340.840	-14.216	460.359	363.686	-13.560
314.732	219.090	-13.514	299.831	190.717	-13.970	438.026	340.817	-14.234	460.332	363.662	-13.547
315.617	220.463	-13.484	300.285	192.299	-13.916	438.010	340.769	-14.234	460.289	363.647	-13.570
316.567	221.738	-13.539	300.649	193.891	-13.950	437.985	340.729	-14.220	460.255	363.623	-13.573
317.481	223.042	-13.496	301.050	195.472	-13.831	437.960	340.699	-14.238	460.219	363.606	-13.545
318.376	224.351	-13.487	301.520	197.064	-13.930	437.943	340.667	-14.239	460.183	363.598	-13.550
319.210	225.669	-13.390	301.868	198.656	-13.842	437.926	340.652	-14.241	460.157	363.573	-13.537
320.115	226.933	-13.461	302.311	200.301	-13.801	437.909	340.620	-14.242	460.123	363.557	-13.541
321.010	228.272	-13.411	302.709	201.938	-13.901	437.892	340.597	-14.244	460.098	363.550	-13.559
321.944	229.493	-13.461	303.128	203.507	-13.717	437.857	340.581	-14.247	460.081	363.526	-13.561
322.794	230.846	-13.363	303.594	205.244	-13.849	437.840	340.557	-14.248	460.038	363.527	-13.582
323.716	232.130	-13.398	304.004	206.822	-13.713	437.823	340.526	-14.250	460.022	363.510	-13.583
324.583	233.516	-13.326	304.454	208.513	-13.784	437.798	340.504	-14.269	459.987	363.494	-13.587
325.497	234.816	-13.438	304.930	210.217	-13.808	437.771	340.487	-14.255	459.953	363.486	-13.591
326.402	236.111	-13.402	305.338	211.853	-13.703	437.755	340.456	-14.256	459.909	363.461	-13.579
327.316	237.397	-13.412	305.832	213.565	-13.818	437.728	340.431	-14.242	459.874	363.438	-13.584
328.167	238.712	-13.275	306.274	215.265	-13.680	437.712	340.407	-14.243	459.839	363.412	-13.556
329.063	240.002	-13.222	306.795	216.970	-13.755	437.677	340.391	-14.247	459.804	363.381	-13.560
329.984	241.324	-13.249	307.281	218.651	-13.665	437.661	340.360	-14.247	459.778	363.356	-13.547
330.926	242.586	-13.270	307.730	220.382	-13.701	437.625	340.335	-14.219	459.751	363.332	-13.535
331.794	243.915	-13.359	308.252	222.066	-13.644	437.607	340.319	-14.220	459.707	363.300	-13.524
332.608	245.271	-13.285	308.727	223.828	-13.539	437.582	340.279	-14.206	459.680	363.283	-13.511
333.505	246.547	-13.223	309.274	225.545	-13.595	437.547	340.263	-14.209	459.646	363.267	-13.515
334.437	247.830	-13.192	309.768	227.291	-13.648	437.521	340.223	-14.196	459.619	363.243	-13.503
335.377	249.134	-13.280	310.341	229.046	-13.592	437.486	340.192	-14.199	459.593	363.244	-13.522
336.290	250.465	-13.249	310.824	230.824	-13.504	437.460	340.160	-14.186	459.559	363.220	-13.525
337.124	251.766	-13.265	311.380	232.541	-13.574	437.434	340.128	-14.172	459.541	363.212	-13.528
337.927	253.158	-13.239	311.899	234.333	-13.514	437.407	340.103	-14.159	459.518	363.189	-13.545
338.840	254.490	-13.238	312.524	236.135	-13.523	437.382	340.080	-14.177	459.500	363.189	-13.547
339.800	255.759	-13.249	313.062	237.881	-13.433	437.356	340.056	-14.164	459.466	363.165	-13.551
340.704	257.041	-13.233	313.659	239.728	-13.556	437.321	340.033	-14.168	459.441	363.157	-13.569
341.589	258.389	-13.182	314.257	241.548	-13.447	437.295	340.008	-14.153	459.415	363.140	-13.555
342.386	259.745	-13.163	314.830	243.290	-13.486	437.269	339.986	-14.172	459.390	363.110	-13.574
343.256	261.035	-13.209	315.455	245.106	-13.429	437.243	339.946	-14.159	459.364	363.085	-13.560
344.184	262.398	-13.241	316.044	246.931	-13.401	437.217	339.923	-14.178	459.320	363.061	-13.550
345.099	263.669	-13.232	316.712	248.767	-13.459	437.184	339.884	-14.180	459.286	363.029	-13.554
346.004	264.952	-13.106	317.310	250.584	-13.351	437.157	339.860	-14.167	459.241	363.005	-13.544
346.889	266.308	-13.118	317.978	252.419	-13.501	437.132	339.829	-14.185	459.205	362.964	-13.516
347.722	267.651	-13.160	318.550	254.196	-13.345	437.106	339.797	-14.172	459.151	362.931	-13.492
348.619	268.908	-13.182	319.254	256.046	-13.333	437.080	339.774	-14.190	459.099	362.900	-13.499
349.532	270.204	-13.140	319.940	257.890	-13.421	437.046	339.743	-14.194	459.063	362.860	-13.472
350.398	271.563	-13.115	320.553	259.794	-13.313	437.029	339.720	-14.196	459.002	362.830	-13.496
351.340	272.811	-13.117	321.292	261.636	-13.364	437.012	339.688	-14.197	458.968	362.814	-13.500
352.263	274.057	-13.054	321.906	263.507	-13.290	436.977	339.649	-14.201	458.932	362.798	-13.505
353.148	275.459	-13.056	322.645	265.361	-13.309	436.944	339.619	-14.235	458.907	362.776	-13.525
353.972	276.792	-13.074	323.412	267.136	-13.345	436.926	339.587	-14.205	458.873	362.768	-13.528
354.815	277.973	-13.032	324.043	269.051	-13.266	436.901	339.564	-14.224	458.847	362.761	-13.548
355.738	279.328	-13.125	324.765	270.904	-13.284	436.876	339.533	-14.242	458.822	362.746	-13.567
356.687	280.675	-13.201	325.601	272.781	-13.351	436.849	339.509	-14.229	458.787	362.730	-13.571
357.592	281.905	-13.135	326.294	274.666	-13.222	436.824	339.479	-14.247	458.770	362.715	-13.573
358.379	283.185	-12.893	327.004	276.609	-13.225	436.799	339.456	-14.266	458.735	362.699	-13.577
359.219	284.579	-12.973	327.822	278.460	-13.293	436.764	339.433	-14.270	458.692	362.658	-13.565
360.143	285.877	-13.130	328.596	280.284	-13.245	436.747	339.401	-14.271	458.648	362.634	-13.555
361.094	287.168	-13.167	329.371	282.151	-13.129	436.713	339.370	-14.274	458.605	362.604	-13.577
362.024	288.562	-13.171	330.226	284.015	-13.157	436.688	339.355	-14.292	458.570	362.581	-13.582
362.811	289.739	-12.999	331.052	285.931	-13.203	436.653	339.323	-14.295	458.526	362.556	-13.571
363.642	291.064	-12.864	331.843	287.833	-13.121	436.626	339.299	-14.282	458.499	362.524	-13.558
364.575	292.497	-13.054	332.661	289.744	-13.116	436.592	339.275	-14.285	458.465	362.493	-13.562
365.461	293.773	-13.113	333.534	291.609	-13.171	436.565	339.251	-14.272	458.449	362.453	-13.563
366.347	295.027	-13.041	334.433	293.454	-13.119	436.539	339.219	-14.258	458.415	362.429	-13.567
367.250	296.425	-12.959	335.302	295.355	-13.051	436.513	339.187	-14.245	458.398	362.414	-13.569
368.072	297.680	-12.842	336.190	297.289	-13.108	436.479	339.155	-14.248	458.371	362.405	-13.555
368.977	298.987	-12.859	337.035	299.170	-13.150	436.452	339.139	-14.234	458.346	362.390	-13.574
369.839	300.357	-12.954	337.896	301.045	-13.095	436.426	339.107	-14.221	458.320	362.380	-13.561
370.733	301.630	-12.926	338.742	302.912	-12.971	436.391	339.091	-14.224	458.285	362.372	-13.564
371.112	302.653	-12.827	339.311	304.512	-12.875	437.071	339.416	-14.155	458.918	362.720	-13.505
371.062	303.465	-12.793	339.296	305.922	-12.788	438.272	340.109	-14.134	460.198	363.373	-13.461
371.004	304.259	-12.741	339.293	307.400	-12.706	439.522	340.773	-14.152	461.486	364.013	-13.505
370.947	305.086	-12.719	339.325	308.746	-12.761	440.751	341.459	-14.138	462.729	364.651	-13.464
370.914	305.930	-12.716	339.358	310.265	-12.775	441.982	342.123	-14.156	463.949	365.254	-13.404
370.894	306.727	-12.723	339.366	311.581	-12.809	443.184	342.784	-14.127	465.176	365.861	-13.362
370.801	307.502	-12.706	339.407	313.091	-12.874	444.386	343.430	-14.098	466.423	366.508	-13.377
370.726	308.302	-12.719	339.415	314.418	-12.875	445.599	344.094	-14.113	467.726	367.112	-13.414
370.686	309.130	-12.730	339.438	315.859	-12.912	446.820	344.772	-14.109	468.972	367.813	-13.427
370.664	310.020	-12.771	339.473	317.223	-12.862	448.059	345.427	-14.101	470.221	368.403	-13.402
370.635	310.792	-12.765	339.577	318.548	-12.916	449.281	346.113	-14.125	471.442	369.090	-13.431
370.588	311.582	-12.790	339.673	319.966	-12.851	450.510	346.767	-14.100	472.715	369.679	-13.385
370.540	312.379	-12.786	339.884	321.313	-12.868	451.696	347.421	-14.094	473.967	370.362	-13.485
370.473	313.184	-12.783	340.076	322.715	-12.984	452.915	348.066	-14.051	475.218	370.950	-13.409
370.432	314.019	-12.763	340.198	324.203	-12.933	454.116	348.719	-14.008	476.421	371.572	-13.401
370.373	314.855	-12.744	340.313	325.562	-12.934	455.347	349.375	-14.040	477.654	372.183	-13.325
370.325	315.666	-12.706	340.399	326.940	-12.824	456.568	350.054	-14.056	478.895	372.808	-13.371
370.261	316.448	-12.733	340.556	328.294	-12.747	457.782	350.725	-14.086	480.196	373.459	-13.426
370.203	317.283	-12.744	340.722	329.617	-12.685	459.001	351.379	-14.068	481.437	374.104	-13.436
370.162	318.135	-12.757	340.952	331.070	-12.731	460.186	352.047	-14.051	482.665	374.750	-13.433
370.113	318.924	-12.754	341.191	332.440	-12.890	461.397	352.694	-14.046	483.900	375.376	-13.378
370.057	319.714	-12.733	341.341	333.780	-12.892	462.616	353.370	-14.022	485.165	376.001	-13.397
369.974	320.502	-12.727	341.535	335.135	-12.779	463.839	354.019	-14.061	486.422	376.657	-13.433
369.925	321.344	-12.723	341.754	336.491	-12.750	465.058	354.705	-14.067	487.674	377.260	-13.372
369.875	322.194	-12.719	342.030	337.859	-12.843	466.289	355.360	-14.084	488.883	377.887	-13.331
369.809	323.037	-12.714	342.288	339.221	-12.904	467.471	356.019	-14.027	490.125	378.515	-13.285
369.752	323.818	-12.727	342.497	340.558	-12.859	468.701	356.681	-14.042	491.393	379.132	-13.327
369.704	324.631	-12.721	342.764	341.867	-12.777	469.902	357.341	-14.011	492.663	379.786	-13.321
369.666	325.454	-12.731	343.066	343.225	-12.822	471.131	358.027	-14.023	493.911	380.416	-13.331
369.615	326.312	-12.696	343.341	344.549	-12.886	472.368	358.674	-14.017	495.153	381.057	-13.276
369.577	327.143	-12.704	343.633	345.856	-12.789	473.554	359.318	-14.014	496.383	381.687	-13.287
369.528	327.956	-12.700	343.945	347.171	-12.784	474.772	359.981	-14.008	497.664	382.325	-13.286
369.481	328.746	-12.694	344.266	348.444	-12.829	475.963	360.647	-13.955	498.921	382.959	-13.338
369.439	329.580	-12.676	344.583	349.780	-12.781	477.193	361.311	-13.992	500.137	383.567	-13.264
369.400	330.402	-12.686	344.896	351.043	-12.745	478.421	361.985	-13.961	501.362	384.188	-13.239
369.378	331.240	-12.696	345.262	352.340	-12.805	479.634	362.633	-13.996	502.607	384.821	-13.204
369.339	332.078	-12.706	345.617	353.563	-12.755	480.868	363.292	-13.947	503.906	385.442	-13.261
369.273	332.865	-12.671	345.956	354.848	-12.734	482.069	363.952	-13.932	505.126	386.083	-13.242
369.215	333.701	-12.650	346.340	356.141	-12.760	483.270	364.605	-13.918	506.368	386.688	-13.208
369.156	334.551	-12.632	346.707	357.356	-12.723	484.506	365.280	-13.895	507.585	387.342	-13.155
369.108	335.381	-12.625	347.106	358.666	-12.718	485.716	365.911	-13.892	508.877	387.933	-13.222
369.069	336.203	-12.635	347.481	359.958	-12.728	486.941	366.585	-13.851	510.113	388.604	-13.195
369.039	337.025	-12.629	347.901	361.138	-12.691	488.162	367.231	-13.858	511.385	389.184	-13.229
368.982	337.854	-12.641	348.294	362.393	-12.700	489.379	367.906	-13.832	512.577	389.881	-13.112
368.950	338.698	-12.636	348.726	363.611	-12.706	490.588	368.558	-13.822	513.871	390.422	-13.169
368.900	339.524	-12.602	349.125	364.804	-12.671	491.815	369.234	-13.807	515.084	391.139	-13.110
368.844	340.338	-12.579	349.547	366.005	-12.694	493.035	369.902	-13.807	516.369	391.670	-13.148
368.805	341.177	-12.588	350.012	367.211	-12.637	494.251	370.546	-13.776	517.561	392.392	-13.058
368.757	341.990	-12.584	350.443	368.363	-12.675	495.468	371.204	-13.741	518.844	392.928	-13.059
368.709	342.804	-12.579	350.927	369.554	-12.650	496.685	371.855	-13.706	520.059	393.665	-13.060
368.678	343.648	-12.574	351.347	370.745	-12.674	497.896	372.530	-13.717	521.371	394.196	-13.100
368.636	344.523	-12.586	351.833	371.847	-12.613	499.104	373.167	-13.697	522.539	394.921	-13.057
368.589	345.362	-12.579	352.273	373.022	-12.635	500.321	373.851	-13.690	523.819	395.461	-13.020
368.559	346.184	-12.573	352.768	374.066	-12.656	501.540	374.502	-13.679	525.036	396.191	-13.045
368.521	346.999	-12.583	353.244	375.314	-12.610	502.742	375.172	-13.703	526.344	396.727	-13.048
368.481	347.813	-12.595	353.720	376.384	-12.631	503.950	375.822	-13.675	527.541	397.432	-13.042
368.432	348.674	-12.623	354.231	377.498	-12.619	505.186	376.491	-13.691	528.803	397.979	-13.002
368.408	349.557	-12.636	354.708	378.607	-12.638	506.386	377.165	-13.677	530.020	398.675	-13.055
