NO_OF_FRAMES	216
NO_OF_CAMERAS	2
NO_OF_MARKERS	4
FREQUENCY	500
NO_OF_ANALOG	0
ANALOG_FREQUENCY	0
DESCRIPTION	--
TIME_STAMP	2024-11-06, 16:47:54.796	2331802.51927680
DATA_INCLUDED	3D
MARKER_NAMES	New 0000	New 0001	New 0002	New 0003
TRAJECTORY_TYPES	Measured	Measured	Measured	Mixed
323.508	161.193	-13.759	335.493	187.795	-13.684	443.898	384.545	-13.990	476.386	381.652	-13.312
324.008	163.348	-13.780	336.378	189.768	-13.681	443.906	384.575	-13.972	476.377	381.651	-13.298
324.516	165.483	-13.750	337.246	191.734	-13.645	443.906	384.598	-13.972	476.377	381.658	-13.297
325.029	167.720	-13.704	338.121	193.763	-13.653	443.906	384.629	-13.971	476.368	381.649	-13.282
325.549	169.822	-13.696	338.926	195.752	-13.600	443.906	384.652	-13.971	476.358	381.664	-13.267
326.003	172.025	-13.668	339.785	197.728	-13.577	443.905	384.683	-13.971	476.358	381.655	-13.267
326.554	174.154	-13.682	340.654	199.671	-13.569	443.913	384.689	-13.954	476.349	381.654	-13.252
327.030	176.234	-13.624	341.542	201.565	-13.594	443.913	384.705	-13.954	476.340	381.645	-13.237
327.561	178.452	-13.639	342.409	203.556	-13.584	443.911	384.718	-13.923	476.339	381.653	-13.237
328.035	180.586	-13.546	343.196	205.569	-13.522	443.902	384.750	-13.940	476.339	381.661	-13.237
328.561	182.728	-13.547	344.037	207.534	-13.528	443.901	384.774	-13.941	476.322	381.660	-13.239
329.042	184.899	-13.502	344.899	209.414	-13.502	443.891	384.789	-13.927	476.321	381.669	-13.240
329.566	187.058	-13.499	345.740	211.340	-13.437	443.890	384.812	-13.928	476.312	381.667	-13.225
330.051	189.116	-13.484	346.573	213.269	-13.386	443.889	384.835	-13.928	476.311	381.676	-13.226
330.522	191.329	-13.452	347.380	215.225	-13.390	443.871	384.859	-13.931	476.293	381.691	-13.229
331.038	193.493	-13.467	348.196	217.156	-13.408	443.869	384.883	-13.933	476.293	381.691	-13.229
331.523	195.573	-13.455	349.030	219.069	-13.423	443.860	384.899	-13.950	476.275	381.699	-13.232
332.028	197.803	-13.452	349.865	220.947	-13.375	443.859	384.923	-13.951	476.275	381.699	-13.232
332.493	199.901	-13.403	350.681	222.869	-13.358	443.859	384.938	-13.951	476.274	381.707	-13.233
333.003	201.990	-13.463	351.488	224.783	-13.355	443.840	384.962	-13.954	476.256	381.708	-13.236
333.483	204.204	-13.414	352.242	226.690	-13.321	443.840	384.980	-13.987	476.256	381.716	-13.237
333.957	206.326	-13.383	353.059	228.567	-13.334	443.830	385.003	-13.973	476.248	381.717	-13.254
334.456	208.465	-13.395	353.886	230.410	-13.327	443.829	385.026	-13.974	476.238	381.716	-13.239
334.947	210.642	-13.428	354.679	232.253	-13.385	443.820	385.051	-13.992	476.229	381.717	-13.258
335.409	212.804	-13.311	355.460	234.181	-13.426	443.811	385.067	-14.009	476.211	381.725	-13.261
335.920	214.905	-13.403	356.205	236.072	-13.307	443.800	385.098	-13.995	476.211	381.733	-13.262
336.410	217.068	-13.308	357.041	237.931	-13.345	443.791	385.107	-14.013	476.211	381.726	-13.262
336.882	219.252	-13.398	357.796	239.783	-13.339	443.790	385.130	-14.014	476.193	381.741	-13.265
337.371	221.438	-13.266	358.517	241.647	-13.330	443.781	385.162	-14.031	476.185	381.742	-13.282
337.908	223.539	-13.409	359.299	243.485	-13.341	443.771	385.185	-14.017	476.174	381.742	-13.269
338.354	225.691	-13.290	360.136	245.321	-13.373	443.770	385.208	-14.018	476.166	381.743	-13.286
338.845	227.830	-13.348	360.837	247.201	-13.298	443.760	385.230	-14.003	476.157	381.742	-13.271
339.363	229.950	-13.296	361.566	249.073	-13.272	443.751	385.262	-14.020	476.148	381.751	-13.289
339.853	232.127	-13.321	362.395	250.902	-13.320	443.751	385.285	-14.020	476.148	381.751	-13.289
340.333	234.350	-13.235	363.142	252.691	-13.260	443.733	385.316	-14.022	476.130	381.751	-13.293
340.852	236.446	-13.248	363.808	254.577	-13.251	443.732	385.340	-14.023	476.121	381.750	-13.278
341.343	238.574	-13.272	364.575	256.374	-13.286	443.731	385.371	-14.023	476.120	381.758	-13.279
341.807	240.737	-13.217	365.368	258.174	-13.266	443.721	385.401	-14.009	476.102	381.758	-13.281
342.325	242.844	-13.224	366.034	260.065	-13.189	443.721	385.416	-14.008	476.103	381.766	-13.281
342.833	245.031	-13.249	366.784	261.884	-13.281	443.710	385.446	-13.995	476.085	381.766	-13.283
343.324	247.169	-13.208	367.514	263.674	-13.250	443.711	385.469	-13.993	476.084	381.766	-13.284
343.797	249.347	-13.200	368.208	265.474	-13.155	443.710	385.507	-13.993	476.075	381.773	-13.269
344.306	251.485	-13.227	368.894	267.276	-13.208	443.717	385.537	-13.977	476.067	381.774	-13.286
344.761	253.637	-13.122	369.644	269.044	-13.167	443.708	385.559	-13.962	476.067	381.774	-13.286
345.298	255.749	-13.188	370.339	270.863	-13.064	443.700	385.591	-13.978	476.057	381.772	-13.272
345.743	257.943	-13.101	370.998	272.768	-13.227	443.708	385.613	-13.961	476.050	381.773	-13.289
346.323	260.076	-13.159	371.694	274.472	-13.095	443.707	385.651	-13.961	476.040	381.772	-13.274
346.757	262.293	-12.992	372.444	276.226	-13.091	443.707	385.659	-13.960	476.040	381.780	-13.274
347.323	264.410	-13.170	373.052	277.965	-13.089	443.706	385.690	-13.961	476.031	381.771	-13.258
347.750	266.568	-12.984	373.740	279.764	-13.031	443.699	385.706	-13.977	476.031	381.771	-13.258
348.333	268.697	-13.160	374.480	281.604	-13.036	443.698	385.745	-13.977	476.022	381.769	-13.243
348.759	270.825	-12.915	375.014	283.361	-13.013	443.696	385.758	-13.945	476.014	381.770	-13.261
349.289	272.925	-13.060	375.779	285.014	-13.045	443.687	385.790	-13.962	476.005	381.761	-13.245
349.743	275.066	-12.860	376.456	286.760	-12.944	443.688	385.797	-13.962	476.005	381.761	-13.245
350.261	277.297	-13.054	376.947	288.600	-12.993	443.687	385.821	-13.963	475.987	381.768	-13.247
350.752	279.423	-12.915	377.786	290.503	-13.104	443.686	385.837	-13.963	475.997	381.770	-13.262
351.245	281.593	-13.059	378.268	292.114	-12.882	443.676	385.859	-13.949	475.980	381.777	-13.264
351.744	283.686	-12.873	378.968	293.912	-13.032	443.666	385.881	-13.934	475.980	381.769	-13.264
352.211	285.799	-12.939	379.671	295.620	-12.946	443.666	385.904	-13.933	475.962	381.777	-13.266
352.736	287.982	-12.895	380.121	297.425	-12.943	443.648	385.919	-13.936	475.962	381.777	-13.266
353.174	290.162	-12.912	380.944	299.272	-13.048	443.647	385.943	-13.936	475.962	381.777	-13.266
353.745	292.360	-12.912	381.378	300.934	-12.750	443.646	385.958	-13.937	475.963	381.769	-13.266
354.147	294.456	-12.872	382.053	302.736	-13.011	443.637	385.973	-13.922	475.945	381.784	-13.268
354.694	296.586	-12.886	382.632	304.360	-12.765	443.628	386.005	-13.939	475.937	381.785	-13.286
355.106	298.666	-12.826	383.216	306.248	-12.932	443.617	386.035	-13.926	475.949	381.841	-13.330
355.650	300.882	-12.874	383.886	308.007	-12.868	443.616	386.051	-13.926	475.949	381.841	-13.330
356.114	303.075	-12.843	384.346	309.725	-12.882	443.616	386.074	-13.926	475.931	381.849	-13.333
356.617	305.214	-12.871	385.042	311.471	-12.902	443.615	386.097	-13.927	475.922	381.858	-13.351
357.109	307.293	-12.825	385.481	313.164	-12.756	443.596	386.121	-13.930	475.922	381.858	-13.351
357.571	309.457	-12.765	386.163	315.047	-12.963	443.596	386.144	-13.929	475.915	381.866	-13.368
358.088	311.689	-12.861	386.611	316.709	-12.765	443.587	386.176	-13.947	475.905	381.873	-13.354
358.534	313.841	-12.766	387.246	318.540	-12.935	443.577	386.198	-13.933	475.896	381.883	-13.371
359.081	316.015	-12.874	387.741	320.160	-12.780	443.576	386.229	-13.933	475.888	381.884	-13.389
359.474	318.119	-12.748	388.299	321.966	-12.931	443.557	386.253	-13.936	475.888	381.892	-13.389
360.029	320.305	-12.872	388.802	323.686	-12.823	443.556	386.284	-13.936	475.879	381.901	-13.407
360.432	322.349	-12.730	389.348	325.463	-12.929	443.537	386.315	-13.940	475.861	381.909	-13.410
361.016	324.589	-12.864	389.867	327.158	-12.825	443.536	386.339	-13.941	475.861	381.909	-13.410
361.389	326.697	-12.740	390.387	328.953	-12.881	443.528	386.363	-13.957	475.852	381.918	-13.428
361.935	328.912	-12.848	390.908	330.678	-12.806	443.517	386.401	-13.943	475.845	381.926	-13.445
362.364	331.007	-12.784	391.419	332.471	-12.845	443.509	386.425	-13.960	475.834	381.926	-13.431
362.901	333.194	-12.810	391.912	334.191	-12.789	443.508	386.441	-13.960	475.827	381.934	-13.448
363.348	335.325	-12.776	392.424	335.967	-12.827	443.498	386.463	-13.946	475.809	381.927	-13.451
363.823	337.451	-12.756	392.902	337.665	-12.801	443.497	386.494	-13.947	475.809	381.942	-13.451
364.325	339.629	-12.782	393.376	339.438	-12.779	443.489	386.518	-13.963	475.801	381.943	-13.468
364.754	341.729	-12.685	393.870	341.170	-12.785	443.487	386.550	-13.965	475.801	381.943	-13.468
365.302	343.897	-12.819	394.339	342.905	-12.775	443.469	386.573	-13.966	475.791	381.942	-13.454
365.721	346.010	-12.675	394.800	344.647	-12.780	443.469	386.603	-13.966	475.783	381.951	-13.470
366.253	348.199	-12.808	395.257	346.376	-12.757	443.468	386.634	-13.966	475.783	381.951	-13.470
366.654	350.317	-12.631	395.698	348.115	-12.765	443.468	386.657	-13.966	475.774	381.949	-13.456
367.203	352.481	-12.796	396.176	349.870	-12.737	443.468	386.680	-13.966	475.765	381.959	-13.474
367.621	354.572	-12.651	396.598	351.612	-12.714	443.467	386.711	-13.966	475.766	381.958	-13.472
368.161	356.799	-12.736	397.069	353.361	-12.700	443.468	386.719	-13.966	475.766	381.965	-13.472
368.582	358.908	-12.618	397.447	355.049	-12.665	443.457	386.772	-13.951	475.767	381.973	-13.471
369.111	361.016	-12.657	397.935	356.805	-12.716	443.457	386.787	-13.951	475.756	381.980	-13.457
369.577	363.184	-12.618	398.304	358.569	-12.696	443.456	386.810	-13.951	475.757	381.987	-13.457
370.016	365.337	-12.564	398.738	360.278	-12.652	443.456	386.841	-13.950	475.757	381.987	-13.457
370.547	367.475	-12.632	399.154	362.061	-12.674	443.446	386.871	-13.936	475.757	382.002	-13.456
370.985	369.589	-12.547	399.505	363.770	-12.592	443.454	386.900	-13.918	475.748	382.016	-13.440
371.489	371.800	-12.598	399.992	365.540	-12.642	443.435	386.939	-13.921	475.740	382.017	-13.458
371.900	373.928	-12.498	400.327	367.289	-12.622	443.443	386.961	-13.904	475.730	382.046	-13.442
372.052	375.965	-12.531	400.304	368.854	-12.608	443.919	387.135	-13.949	476.116	382.024	-13.243
371.949	377.891	-12.493	400.113	370.223	-12.731	444.697	387.462	-13.912	476.872	382.083	-13.375
371.861	379.836	-12.456	399.882	371.641	-12.762	445.447	387.765	-13.863	477.675	382.155	-13.369
371.766	381.765	-12.434	399.604	373.030	-12.717	446.246	388.042	-13.886	478.280	382.114	-13.297
371.653	383.710	-12.414	399.291	374.392	-12.609	447.018	388.357	-13.896	479.027	382.178	-13.269
371.559	385.648	-12.423	399.008	375.831	-12.642	447.805	388.685	-13.871	479.808	382.236	-13.310
371.447	387.578	-12.434	398.753	377.253	-12.654	448.567	388.968	-13.865	480.493	382.248	-13.308
371.344	389.511	-12.460	398.400	378.651	-12.521	449.330	389.269	-13.892	481.210	382.290	-13.201
371.242	391.436	-12.486	398.077	380.049	-12.464	450.100	389.580	-13.866	481.969	382.377	-13.324
371.137	393.372	-12.514	397.793	381.527	-12.497	450.901	389.913	-13.917	482.684	382.393	-13.253
371.034	395.300	-12.477	397.439	382.920	-12.535	451.643	390.182	-13.914	483.344	382.391	-13.200
370.920	397.250	-12.489	397.036	384.289	-12.434	452.419	390.475	-13.840	484.106	382.484	-13.276
370.797	399.187	-12.454	396.716	385.760	-12.470	453.211	390.806	-13.871	484.800	382.501	-13.251
370.675	401.100	-12.483	396.370	387.210	-12.524	453.998	391.095	-13.843	485.485	382.540	-13.210
370.544	403.031	-12.463	395.952	388.638	-12.518	454.757	391.387	-13.835	486.207	382.599	-13.228
370.422	404.978	-12.459	395.568	390.121	-12.511	455.510	391.701	-13.841	486.915	382.624	-13.245
370.300	406.915	-12.423	395.206	391.550	-12.597	456.309	392.008	-13.855	487.628	382.712	-13.246
370.186	408.881	-12.436	394.750	392.979	-12.596	457.079	392.299	-13.858	488.327	382.740	-13.281
370.084	410.812	-12.429	394.349	394.457	-12.621	457.812	392.570	-13.801	489.029	382.779	-13.235
369.981	412.770	-12.456	393.939	395.921	-12.664	458.600	392.892	-13.799	489.729	382.854	-13.300
369.861	414.710	-12.451	393.456	397.398	-12.581	459.391	393.211	-13.862	490.411	382.861	-13.226
369.758	416.642	-12.445	393.028	398.890	-12.592	460.153	393.485	-13.847	491.080	382.927	-13.248
369.638	418.581	-12.440	392.583	400.395	-12.570	460.911	393.788	-13.800	491.817	382.971	-13.305
369.518	420.517	-12.467	392.089	401.868	-12.539	461.682	394.112	-13.831	492.443	383.006	-13.207
369.408	422.456	-12.477	391.634	403.375	-12.535	462.480	394.411	-13.841	493.141	383.049	-13.238
369.296	424.380	-12.456	391.151	404.919	-12.517	463.242	394.715	-13.823	493.901	383.147	-13.274
369.175	426.328	-12.451	390.642	406.412	-12.549	464.012	395.006	-13.820	494.487	383.176	-13.228
369.053	428.270	-12.448	390.155	407.977	-12.533	464.801	395.307	-13.847	495.216	383.222	-13.189
368.933	430.237	-12.475	389.659	409.487	-12.544	465.580	395.614	-13.857	495.909	383.348	-13.300
368.810	432.165	-12.472	389.110	411.045	-12.548	466.350	395.901	-13.819	496.544	383.326	-13.179
368.697	434.107	-12.452	388.604	412.589	-12.576	467.102	396.206	-13.816	497.216	383.417	-13.229
368.557	436.066	-12.449	388.046	414.143	-12.564	467.880	396.529	-13.826	497.929	383.464	-13.221
368.437	437.988	-12.477	387.530	415.737	-12.609	468.659	396.833	-13.801	498.541	383.511	-13.186
368.324	439.934	-12.489	386.963	417.250	-12.516	469.447	397.131	-13.790	499.257	383.591	-13.208
368.203	441.892	-12.485	386.446	418.924	-12.625	470.206	397.401	-13.735	499.909	383.633	-13.227
368.089	443.826	-12.465	385.854	420.478	-12.483	470.987	397.718	-13.773	500.547	383.693	-13.168
367.956	445.761	-12.448	385.317	422.097	-12.595	471.746	398.030	-13.750	501.255	383.774	-13.206
367.847	447.663	-12.425	384.717	423.714	-12.468	472.535	398.322	-13.769	501.888	383.829	-13.195
367.702	449.594	-12.404	384.173	425.356	-12.595	473.298	398.619	-13.774	502.525	383.874	-13.135
367.590	451.542	-12.383	383.514	426.935	-12.442	474.085	398.916	-13.760	503.217	383.957	-13.208
367.478	453.479	-12.395	383.038	428.680	-12.566	474.854	399.221	-13.748	503.866	384.035	-13.193
367.368	455.400	-12.405	382.309	430.195	-12.459	475.635	399.519	-13.749	504.518	384.065	-13.175
367.260	457.312	-12.414	381.821	431.899	-12.536	476.395	399.807	-13.721	505.166	384.167	-13.160
367.157	459.241	-12.409	381.109	433.619	-12.482	477.174	400.120	-13.721	505.809	384.221	-13.158
367.045	461.174	-12.421	380.595	435.211	-12.489	477.943	400.433	-13.707	506.466	384.299	-13.124
366.931	463.123	-12.434	379.863	436.909	-12.468	478.739	400.731	-13.704	507.106	384.359	-13.091
366.792	465.099	-12.430	379.311	438.621	-12.470	479.499	401.041	-13.673	507.748	384.438	-13.090
366.633	467.082	-12.397	378.655	440.423	-12.537	480.277	401.320	-13.639	508.369	384.507	-13.061
366.467	469.067	-12.347	377.993	441.935	-12.297	481.065	401.620	-13.652	509.039	384.586	-13.069
366.327	471.031	-12.312	377.411	443.798	-12.552	481.836	401.933	-13.665	509.671	384.663	-13.052
366.179	473.001	-12.325	376.682	445.494	-12.291	482.606	402.214	-13.647	510.309	384.710	-13.020
366.056	474.948	-12.323	376.125	447.358	-12.561	483.365	402.509	-13.613	510.956	384.807	-13.079
365.927	476.888	-12.335	375.399	448.936	-12.243	484.142	402.823	-13.610	511.583	384.857	-12.999
365.808	478.836	-12.361	374.809	450.771	-12.480	484.949	403.121	-13.615	512.201	384.969	-13.046
365.705	480.794	-12.389	374.147	452.592	-12.356	485.709	403.426	-13.612	512.858	385.045	-13.007
365.604	482.752	-12.415	373.422	454.386	-12.379	486.476	403.696	-13.559	513.434	385.136	-12.967
365.495	484.706	-12.425	372.797	456.181	-12.413	487.264	404.018	-13.566	514.122	385.216	-13.000
365.376	486.664	-12.452	372.068	457.969	-12.353	488.033	404.317	-13.577	514.710	385.296	-13.006
365.228	488.623	-12.433	371.490	459.795	-12.473	488.813	404.582	-13.566	515.349	385.348	-12.968
365.078	490.559	-12.384	370.765	461.637	-12.334	489.581	404.900	-13.542	515.985	385.502	-13.045
364.919	492.469	-12.319	370.098	463.493	-12.381	490.350	405.200	-13.552	516.559	385.503	-12.937
364.770	494.410	-12.300	369.433	465.368	-12.353	491.155	405.505	-13.553	517.204	385.673	-13.027
364.637	496.309	-12.250	368.748	467.254	-12.401	491.924	405.812	-13.560	517.836	385.718	-13.005
364.508	498.267	-12.262	368.091	469.151	-12.420	492.675	406.107	-13.536	518.403	385.841	-12.980
364.406	500.235	-12.289	367.370	471.029	-12.405	493.473	406.390	-13.552	519.080	385.914	-12.997
364.267	502.111	-12.254	366.683	472.945	-12.421	494.250	406.694	-13.540	519.614	386.013	-12.977
364.145	504.111	-12.283	365.975	474.844	-12.407	495.002	407.008	-13.547	520.280	386.109	-12.981
364.032	506.083	-12.327	365.274	476.784	-12.409	495.777	407.271	-13.501	520.854	386.210	-13.015
363.902	508.051	-12.340	364.584	478.714	-12.394	496.531	407.610	-13.539	521.461	386.319	-12.968
363.742	509.987	-12.339	363.905	480.682	-12.456	497.325	407.895	-13.556	522.064	386.424	-13.043
363.579	511.922	-12.308	363.224	482.635	-12.391	498.106	408.208	-13.570	522.653	386.537	-12.965
363.418	513.846	-12.276	362.526	484.655	-12.486	498.839	408.510	-13.544	523.256	386.634	-13.041
363.264	515.804	-12.272	361.845	486.628	-12.389	499.653	408.775	-13.587	523.843	386.728	-12.928
363.144	517.770	-12.268	361.154	488.598	-12.500	500.397	409.115	-13.572	524.426	386.817	-12.976
363.015	519.744	-12.280	360.484	490.638	-12.448	501.183	409.394	-13.604	525.079	386.992	-13.042
362.863	521.765	-12.327	359.771	492.599	-12.465	501.949	409.700	-13.537	525.633	387.016	-12.933
362.743	523.751	-12.355	359.107	494.659	-12.494	502.711	409.997	-13.551	526.206	387.199	-13.000
362.636	525.675	-12.332	358.406	496.665	-12.460	503.517	410.294	-13.609	526.826	387.252	-12.959
362.506	527.648	-12.313	357.740	498.743	-12.489	504.264	410.609	-13.544	527.397	387.407	-12.991
362.366	529.596	-12.278	357.071	500.775	-12.434	505.052	410.885	-13.569	528.009	387.508	-12.968
362.245	531.572	-12.274	356.379	502.859	-12.467	505.819	411.210	-13.532	528.575	387.588	-12.902
362.116	533.514	-12.255	355.714	504.969	-12.463	506.615	411.500	-13.539	529.190	387.760	-12.940
361.969	535.480	-12.235	355.015	507.074	-12.478	507.367	411.800	-13.569	529.731	387.832	-12.932
361.831	537.441	-12.232	354.387	509.153	-12.471	508.133	412.090	-13.497	530.360	387.999	-12.901
361.702	539.415	-12.212	353.682	511.276	-12.468	508.903	412.397	-13.522	530.902	388.119	-12.925
361.572	541.386	-12.225	353.065	513.376	-12.443	509.689	412.701	-13.511	531.505	388.239	-12.883
361.432	543.351	-12.190	352.359	515.519	-12.472	510.481	413.005	-13.483	532.076	388.372	-12.912
361.300	545.304	-12.140	351.721	517.716	-12.469	511.223	413.307	-13.463	532.661	388.467	-12.909
361.172	547.267	-12.152	351.052	519.866	-12.496	512.027	413.579	-13.445	533.231	388.627	-12.903
361.027	549.211	-12.131	350.432	521.973	-12.439	512.804	413.892	-13.450	533.786	388.736	-12.821
360.906	551.189	-12.128	349.761	524.156	-12.466	513.582	414.196	-13.453	534.415	388.877	-12.937
360.776	553.149	-12.108	349.144	526.344	-12.459	514.349	414.473	-13.408	534.941	389.012	-12.809
360.646	555.129	-12.153	348.475	528.568	-12.453	515.116	414.770	-13.398	535.539	389.109	-12.848
360.507	557.084	-12.150	347.852	530.741	-12.460	515.914	415.069	-13.427	536.106	389.288	-12.846
360.368	559.059	-12.115	347.245	532.935	-12.436	516.685	415.380	-13.331	536.643	389.392	-12.731
360.229	561.027	-12.080	346.608	535.175	-12.461	517.472	415.672	-13.347	537.259	389.550	-12.834
360.101	563.010	-12.060	345.980	537.447	-12.438	518.241	415.950	-13.330	537.769	389.718	-12.741
359.953	565.003	-12.041	345.390	539.627	-12.477	519.019	416.254	-13.329	538.356	389.853	-12.766
359.827	566.942	-12.020	344.777	541.888	-12.434	519.795	416.532	-13.294	538.921	389.963	-12.695
359.703	568.895	-12.050	344.141	544.217	-12.510	520.570	416.868	-13.294	539.474	390.176	-12.758
359.580	570.892	-12.048	343.555	546.469	-12.450	521.341	417.146	-13.341	540.057	390.231	-12.681
359.447	572.858	-12.062	342.948	548.754	-12.540	522.116	417.463	-13.306	540.600	390.436	-12.730
359.334	574.830	-12.043	342.372	551.063	-12.483	522.877	417.769	-13.337	541.169	390.589	-12.721
359.204	576.807	-12.056	341.797	553.355	-12.521	523.642	418.062	-13.287	541.709	390.720	-12.705
359.056	578.785	-12.069	341.196	555.690	-12.480	524.429	418.372	-13.330	542.283	390.930	-12.714
