NO_OF_FRAMES	230
NO_OF_CAMERAS	2
NO_OF_MARKERS	4
FREQUENCY	500
NO_OF_ANALOG	0
ANALOG_FREQUENCY	0
DESCRIPTION	--
TIME_STAMP	2024-11-06, 16:47:54.796	2331802.51927680
DATA_INCLUDED	3D
MARKER_NAMES	New 0000	New 0001	New 0002	New 0003
TRAJECTORY_TYPES	Measured	Mixed	Mixed	Mixed
311.880	185.060	-13.652	328.031	157.399	-13.674	461.320	413.094	-13.895	448.620	383.441	-13.358
312.521	186.974	-13.604	328.542	159.181	-13.819	461.301	413.133	-13.898	448.618	383.480	-13.359
313.108	188.880	-13.618	328.986	161.064	-13.718	461.300	413.164	-13.899	448.600	383.519	-13.361
313.755	190.814	-13.609	329.413	162.930	-13.684	461.281	413.210	-13.902	448.599	383.557	-13.361
314.385	192.756	-13.510	329.940	164.734	-13.761	461.261	413.254	-13.873	448.581	383.595	-13.363
315.032	194.700	-13.632	330.313	166.603	-13.627	461.242	413.286	-13.877	448.563	383.649	-13.365
315.634	196.662	-13.478	330.859	168.397	-13.770	461.231	413.316	-13.862	448.552	383.679	-13.351
316.273	198.609	-13.553	331.223	170.264	-13.619	461.212	413.355	-13.866	448.543	383.719	-13.369
316.894	200.548	-13.528	331.713	172.097	-13.696	461.184	413.393	-13.854	448.533	383.760	-13.387
317.532	202.501	-13.440	332.195	173.940	-13.757	461.165	413.424	-13.857	448.523	383.797	-13.373
318.144	204.443	-13.592	332.576	175.839	-13.606	461.146	413.455	-13.861	448.504	383.836	-13.376
318.783	206.381	-13.440	333.093	177.697	-13.732	461.135	413.493	-13.847	448.493	383.866	-13.361
319.413	208.328	-13.465	333.485	179.526	-13.567	461.126	413.541	-13.865	448.484	383.906	-13.379
319.990	210.233	-13.487	334.011	181.410	-13.675	461.105	413.578	-13.836	448.465	383.945	-13.383
320.647	212.161	-13.400	334.404	183.204	-13.603	461.096	413.618	-13.854	448.446	383.984	-13.386
321.187	214.138	-13.420	334.856	185.106	-13.581	461.076	413.673	-13.858	448.437	384.016	-13.403
321.880	216.057	-13.395	335.339	186.915	-13.672	461.065	413.711	-13.844	448.426	384.054	-13.389
322.490	218.035	-13.348	335.711	188.810	-13.472	461.037	413.748	-13.833	448.415	384.092	-13.375
323.093	219.989	-13.449	336.248	190.640	-13.661	461.026	413.801	-13.818	448.405	384.148	-13.394
323.786	221.882	-13.386	336.621	192.465	-13.461	461.007	413.840	-13.822	448.386	384.187	-13.397
324.345	223.810	-13.401	337.110	194.397	-13.600	460.996	413.878	-13.808	448.385	384.226	-13.398
325.019	225.769	-13.404	337.547	196.203	-13.542	460.978	413.916	-13.810	448.374	384.272	-13.384
325.648	227.704	-13.262	337.974	198.092	-13.532	460.959	413.971	-13.814	448.364	384.301	-13.369
326.243	229.645	-13.375	338.448	199.888	-13.575	460.958	414.010	-13.814	448.354	384.349	-13.387
326.962	231.542	-13.392	338.819	201.817	-13.404	460.930	414.074	-13.835	448.344	384.394	-13.373
327.591	233.511	-13.252	339.355	203.645	-13.620	460.930	414.120	-13.835	448.326	384.433	-13.375
328.241	235.687	-13.327	339.728	205.503	-13.391	460.911	414.166	-13.838	448.324	384.479	-13.375
328.794	237.519	-13.349	340.217	207.434	-13.526	460.910	414.213	-13.838	448.306	384.518	-13.377
329.407	239.411	-13.269	340.672	209.241	-13.464	460.892	414.251	-13.840	448.306	384.564	-13.377
329.986	241.256	-13.249	341.073	211.081	-13.404	460.881	414.289	-13.827	448.287	384.618	-13.379
330.651	243.178	-13.137	341.581	212.910	-13.412	460.853	414.326	-13.814	448.286	384.664	-13.380
331.246	245.155	-13.308	342.125	214.637	-13.049	460.835	414.380	-13.817	448.267	384.711	-13.382
331.884	247.083	-13.180	342.564	216.526	-13.029	460.824	414.426	-13.802	448.258	384.766	-13.399
332.531	249.055	-13.254	342.942	218.504	-13.197	460.806	414.464	-13.805	448.257	384.805	-13.400
333.090	250.988	-13.204	343.301	220.501	-13.399	460.788	414.495	-13.807	448.248	384.853	-13.418
333.799	252.928	-13.134	343.686	222.442	-13.481	460.769	414.534	-13.811	448.237	384.890	-13.403
334.351	254.849	-13.222	344.141	224.258	-13.288	460.759	414.571	-13.796	448.227	384.928	-13.389
335.033	256.807	-13.170	344.660	226.034	-13.339	460.740	414.611	-13.799	448.218	384.960	-13.407
335.708	258.746	-13.131	345.040	227.988	-13.278	460.730	414.651	-13.817	448.208	384.982	-13.391
336.250	260.654	-13.203	345.548	229.811	-13.250	460.720	414.696	-13.802	448.190	385.020	-13.393
336.968	262.635	-13.146	345.948	231.710	-13.222	460.702	414.750	-13.804	448.180	385.060	-13.411
337.510	264.530	-13.127	346.383	233.602	-13.132	460.692	414.787	-13.790	448.180	385.091	-13.411
338.193	266.529	-13.196	346.872	235.534	-13.233	460.666	414.842	-13.809	448.170	385.136	-13.396
338.822	268.420	-13.015	347.255	237.362	-13.105	460.665	414.896	-13.809	448.169	385.159	-13.396
339.409	270.349	-13.199	347.761	239.302	-13.208	460.664	414.935	-13.809	448.152	385.205	-13.398
340.091	272.325	-13.110	348.172	241.114	-13.093	460.646	414.973	-13.811	448.143	385.245	-13.415
340.694	274.215	-12.975	348.592	242.933	-13.062	460.646	415.012	-13.811	448.142	385.283	-13.415
341.298	276.141	-13.095	349.045	244.850	-13.131	460.628	415.050	-13.814	448.124	385.330	-13.417
341.935	278.066	-12.896	349.453	246.771	-13.019	460.616	415.088	-13.800	448.113	385.375	-13.403
342.577	280.006	-13.073	349.918	248.617	-13.169	460.607	415.136	-13.818	448.094	385.414	-13.406
343.206	281.972	-13.015	350.325	250.538	-12.993	460.589	415.167	-13.820	448.084	385.459	-13.391
343.862	283.901	-12.907	350.761	252.455	-13.095	460.570	415.214	-13.823	448.075	385.507	-13.408
344.460	285.796	-13.033	351.208	254.290	-13.073	460.562	415.254	-13.840	448.064	385.545	-13.394
345.097	287.736	-12.897	351.591	256.159	-12.978	460.533	415.299	-13.828	448.054	385.592	-13.412
345.755	289.696	-12.976	352.081	258.024	-13.044	460.515	415.345	-13.831	448.044	385.622	-13.398
346.357	291.650	-12.934	352.462	259.959	-12.946	460.496	415.392	-13.834	448.035	385.670	-13.415
347.032	293.603	-12.917	352.907	261.843	-13.032	460.486	415.422	-13.820	448.034	385.701	-13.416
347.619	295.555	-12.966	353.369	263.734	-12.918	460.459	415.469	-13.840	448.024	385.731	-13.401
348.249	297.438	-12.903	353.751	265.676	-12.984	460.448	415.515	-13.825	448.006	385.780	-13.437
348.879	299.443	-12.934	354.249	267.572	-12.969	460.431	415.548	-13.860	447.996	385.817	-13.422
349.457	301.336	-12.936	354.604	269.466	-12.889	460.420	415.586	-13.846	447.986	385.865	-13.439
350.165	303.362	-12.918	355.104	271.328	-12.935	460.402	415.625	-13.848	447.976	385.895	-13.425
350.735	305.242	-12.901	355.511	273.270	-12.821	460.383	415.656	-13.852	447.967	385.942	-13.442
351.391	307.208	-12.949	355.940	275.151	-12.902	460.365	415.718	-13.854	447.958	385.975	-13.460
352.031	309.153	-12.864	356.403	277.066	-12.847	460.356	415.750	-13.872	447.947	386.020	-13.446
352.591	311.046	-12.865	356.756	279.019	-12.869	460.329	415.779	-13.858	447.938	386.052	-13.463
353.282	313.074	-12.877	357.254	280.916	-12.784	460.311	415.818	-13.861	447.920	386.090	-13.465
353.841	314.954	-12.813	357.629	282.830	-12.863	460.284	415.874	-13.881	447.910	386.128	-13.450
354.507	316.955	-12.937	358.071	284.744	-12.786	460.284	415.920	-13.881	447.891	386.174	-13.453
355.118	318.876	-12.806	358.518	286.668	-12.860	460.275	415.967	-13.897	447.883	386.214	-13.469
355.723	320.803	-12.849	358.915	288.602	-12.765	460.256	416.006	-13.901	447.873	386.236	-13.454
356.388	322.762	-12.844	359.396	290.503	-12.778	460.245	416.044	-13.887	447.864	386.283	-13.472
356.957	324.639	-12.761	359.751	292.466	-12.759	460.244	416.083	-13.888	447.854	386.313	-13.456
357.653	326.642	-12.892	360.278	294.288	-12.686	460.218	416.123	-13.907	447.845	386.360	-13.474
358.228	328.486	-12.698	360.624	296.277	-12.749	460.190	416.168	-13.895	447.835	386.390	-13.459
358.889	330.427	-12.798	361.131	298.175	-12.712	460.179	416.198	-13.881	447.826	386.430	-13.476
359.518	332.370	-12.761	361.523	300.078	-12.693	460.160	416.237	-13.884	447.815	386.475	-13.462
360.112	334.301	-12.690	361.939	302.011	-12.661	460.142	416.260	-13.887	447.798	386.508	-13.496
360.772	336.311	-12.855	362.386	303.907	-12.636	460.122	416.289	-13.858	447.796	386.537	-13.465
361.353	338.204	-12.677	362.748	305.870	-12.670	460.103	416.320	-13.861	447.778	386.591	-13.467
362.024	340.182	-12.788	363.246	307.792	-12.680	460.085	416.366	-13.864	447.767	386.629	-13.453
362.609	342.102	-12.734	363.558	309.759	-12.709	460.065	416.387	-13.835	447.748	386.660	-13.456
363.232	344.022	-12.674	364.056	311.668	-12.687	460.046	416.434	-13.838	447.738	386.697	-13.441
363.892	345.998	-12.773	364.403	313.628	-12.715	460.018	416.487	-13.825	447.719	386.736	-13.444
364.458	347.863	-12.589	364.829	315.560	-12.729	460.007	416.532	-13.811	447.708	386.790	-13.430
365.139	349.843	-12.714	365.283	317.509	-12.754	459.989	416.578	-13.813	447.707	386.828	-13.430
365.703	351.736	-12.564	365.619	319.472	-12.736	459.961	416.623	-13.801	447.689	386.867	-13.432
366.363	353.732	-12.628	366.143	321.435	-12.760	459.942	416.669	-13.804	447.678	386.912	-13.418
366.957	355.693	-12.650	366.436	323.384	-12.726	459.932	416.715	-13.790	447.668	386.957	-13.404
367.559	357.617	-12.559	366.959	325.310	-12.719	459.912	416.769	-13.793	447.649	387.004	-13.406
368.238	359.609	-12.684	367.317	327.233	-12.762	459.894	416.808	-13.796	447.638	387.042	-13.392
368.787	361.486	-12.564	367.713	329.231	-12.727	459.875	416.854	-13.798	447.629	387.090	-13.410
369.475	363.460	-12.639	368.224	331.142	-12.810	459.867	416.894	-13.815	447.617	387.143	-13.396
370.016	365.377	-12.595	368.515	333.112	-12.712	459.856	416.940	-13.801	447.607	387.181	-13.383
370.673	367.309	-12.531	369.051	335.014	-12.747	459.846	416.996	-13.820	447.588	387.227	-13.385
371.299	369.284	-12.624	369.364	336.956	-12.774	459.827	417.035	-13.823	447.586	387.266	-13.386
371.865	371.160	-12.500	369.841	338.876	-12.623	459.809	417.073	-13.825	447.568	387.313	-13.389
372.571	373.154	-12.605	370.289	340.900	-12.852	459.789	417.129	-13.830	447.549	387.351	-13.391
373.092	375.070	-12.499	370.604	342.822	-12.644	459.770	417.175	-13.833	447.531	387.382	-13.393
373.760	377.027	-12.509	371.141	344.824	-12.838	459.742	417.213	-13.821	447.512	387.429	-13.396
374.350	378.953	-12.538	371.458	346.783	-12.755	459.722	417.264	-13.792	447.502	387.459	-13.382
374.944	380.864	-12.490	371.918	348.722	-12.666	459.703	417.295	-13.795	447.484	387.504	-13.383
375.634	382.833	-12.592	372.348	350.750	-12.863	459.685	417.342	-13.797	447.475	387.544	-13.400
376.164	384.722	-12.435	372.706	352.657	-12.573	459.665	417.381	-13.801	447.456	387.583	-13.403
376.861	386.697	-12.488	373.237	354.693	-12.908	459.655	417.411	-13.786	447.445	387.621	-13.389
377.420	388.615	-12.440	373.545	356.589	-12.680	459.628	417.451	-13.807	447.426	387.668	-13.393
378.061	390.550	-12.434	374.045	358.541	-12.713	459.617	417.489	-13.793	447.406	387.715	-13.397
378.702	392.555	-12.523	374.448	360.500	-12.798	459.598	417.528	-13.796	447.396	387.745	-13.382
379.243	394.432	-12.442	374.838	362.341	-12.484	459.589	417.591	-13.813	447.377	387.791	-13.385
379.932	396.405	-12.477	375.352	364.410	-12.883	459.572	417.637	-13.815	447.366	387.822	-13.372
380.471	398.343	-12.429	375.691	366.299	-12.527	459.560	417.690	-13.801	447.356	387.859	-13.357
381.149	400.259	-12.417	376.192	368.340	-12.784	459.542	417.729	-13.804	447.337	387.906	-13.359
381.784	402.202	-12.422	376.564	370.288	-12.665	459.541	417.791	-13.805	447.336	387.929	-13.360
382.361	404.077	-12.337	376.923	372.232	-12.499	459.522	417.837	-13.807	447.308	387.982	-13.347
383.039	406.097	-12.420	377.447	374.276	-12.815	459.513	417.893	-13.825	447.299	388.022	-13.365
383.562	408.004	-12.337	377.775	376.179	-12.445	459.494	417.940	-13.828	447.280	388.069	-13.368
384.248	409.974	-12.372	378.306	378.244	-12.810	459.484	417.996	-13.846	447.269	388.106	-13.354
384.837	411.914	-12.394	378.674	380.166	-12.531	459.465	418.043	-13.850	447.260	388.154	-13.372
385.434	413.812	-12.337	379.029	382.159	-12.571	459.447	418.081	-13.852	447.249	388.199	-13.358
386.089	415.759	-12.400	379.506	384.171	-12.776	459.472	418.145	-13.866	447.239	388.278	-13.376
386.337	417.495	-12.325	379.301	386.036	-12.805	459.878	418.398	-13.834	447.341	388.736	-13.352
386.458	419.171	-12.326	378.762	387.764	-12.482	460.472	418.784	-13.821	447.455	389.305	-13.264
386.655	420.819	-12.285	378.483	389.637	-12.589	461.027	419.165	-13.817	447.544	389.921	-13.194
386.883	422.521	-12.320	378.094	391.610	-12.770	461.591	419.525	-13.763	447.672	390.504	-13.184
387.068	424.218	-12.363	377.549	393.453	-12.517	462.165	419.913	-13.754	447.754	391.172	-13.195
387.240	425.856	-12.339	377.239	395.238	-12.574	462.738	420.282	-13.713	447.879	391.763	-13.188
387.393	427.500	-12.284	376.839	397.054	-12.645	463.279	420.657	-13.741	447.962	392.393	-13.199
387.543	429.200	-12.231	376.353	398.903	-12.545	463.854	421.036	-13.731	448.042	393.032	-13.213
387.748	430.831	-12.239	376.032	400.854	-12.594	464.402	421.406	-13.775	448.155	393.645	-13.301
387.939	432.543	-12.277	375.650	402.747	-12.598	464.986	421.798	-13.746	448.291	394.309	-13.339
388.102	434.204	-12.302	375.234	404.635	-12.560	465.525	422.166	-13.773	448.427	394.991	-13.410
388.273	435.847	-12.246	374.874	406.608	-12.550	466.119	422.525	-13.792	448.546	395.639	-13.449
388.430	437.526	-12.243	374.515	408.579	-12.537	466.632	422.910	-13.772	448.682	396.330	-13.520
388.612	439.203	-12.233	374.117	410.504	-12.563	467.232	423.284	-13.774	448.816	397.015	-13.527
388.836	440.830	-12.271	373.746	412.466	-12.507	467.780	423.665	-13.782	448.958	397.706	-13.516
388.988	442.537	-12.282	373.364	414.506	-12.531	468.361	424.059	-13.754	449.108	398.423	-13.522
389.149	444.192	-12.244	373.001	416.453	-12.523	468.920	424.425	-13.775	449.272	399.120	-13.462
389.311	445.858	-12.171	372.659	418.465	-12.511	469.482	424.778	-13.716	449.429	399.814	-13.385
389.468	447.495	-12.136	372.329	420.440	-12.470	470.050	425.161	-13.753	449.580	400.530	-13.389
389.662	449.169	-12.172	371.957	422.457	-12.478	470.587	425.538	-13.712	449.749	401.234	-13.425
389.853	450.863	-12.209	371.650	424.446	-12.529	471.182	425.922	-13.759	449.908	401.949	-13.411
390.018	452.562	-12.190	371.352	426.463	-12.563	471.723	426.303	-13.671	450.100	402.715	-13.430
390.184	454.199	-12.148	371.015	428.477	-12.473	472.318	426.688	-13.717	450.291	403.433	-13.351
390.335	455.900	-12.159	370.695	430.517	-12.446	472.864	427.050	-13.692	450.455	404.171	-13.323
390.510	457.563	-12.132	370.419	432.565	-12.499	473.433	427.425	-13.724	450.660	404.918	-13.319
390.690	459.167	-12.188	370.111	434.670	-12.549	473.979	427.811	-13.697	450.881	405.675	-13.416
390.842	460.899	-12.199	369.781	436.741	-12.541	474.544	428.184	-13.700	451.049	406.514	-13.415
391.014	462.564	-12.174	369.488	438.782	-12.464	475.102	428.558	-13.717	451.313	407.226	-13.424
391.159	464.221	-12.134	369.249	440.851	-12.481	475.657	428.937	-13.704	451.515	408.051	-13.423
391.325	465.900	-12.147	369.029	442.967	-12.529	476.214	429.334	-13.722	451.752	408.838	-13.417
391.522	467.538	-12.148	368.759	445.127	-12.534	476.752	429.690	-13.644	451.980	409.614	-13.463
391.673	469.265	-12.158	368.455	447.174	-12.508	477.335	430.113	-13.675	452.207	410.445	-13.442
391.812	470.939	-12.221	368.187	449.246	-12.480	477.880	430.456	-13.613	452.478	411.214	-13.400
391.983	472.554	-12.174	367.965	451.377	-12.497	478.468	430.830	-13.705	452.735	412.030	-13.457
392.159	474.277	-12.169	367.761	453.519	-12.545	479.002	431.203	-13.629	452.951	412.861	-13.422
392.320	475.944	-12.162	367.531	455.656	-12.546	479.588	431.597	-13.689	453.241	413.655	-13.410
392.485	477.553	-12.185	367.318	457.835	-12.579	480.126	431.956	-13.641	453.558	414.455	-13.443
392.621	479.333	-12.195	367.055	459.977	-12.537	480.691	432.355	-13.673	453.809	415.306	-13.370
392.794	481.021	-12.201	366.832	462.110	-12.490	481.263	432.738	-13.621	454.062	416.166	-13.397
392.955	482.600	-12.162	366.658	464.264	-12.541	481.812	433.106	-13.653	454.414	416.989	-13.425
393.139	484.331	-12.205	366.488	466.460	-12.556	482.388	433.494	-13.663	454.710	417.821	-13.396
393.311	485.993	-12.191	366.330	468.672	-12.521	482.915	433.871	-13.635	454.982	418.693	-13.385
393.433	487.673	-12.188	366.181	470.857	-12.556	483.498	434.236	-13.628	455.351	419.524	-13.412
393.545	489.375	-12.171	366.008	473.027	-12.542	484.051	434.662	-13.612	455.665	420.364	-13.380
393.753	490.984	-12.121	365.852	475.225	-12.495	484.628	434.999	-13.654	455.980	421.242	-13.414
393.931	492.730	-12.211	365.696	477.405	-12.481	485.155	435.411	-13.590	456.338	422.110	-13.427
394.064	494.399	-12.245	365.577	479.638	-12.464	485.737	435.787	-13.616	456.688	422.958	-13.389
394.253	496.037	-12.197	365.466	481.897	-12.463	486.285	436.162	-13.579	457.039	423.843	-13.417
394.360	497.808	-12.194	365.343	484.069	-12.460	486.867	436.554	-13.605	457.415	424.685	-13.393
394.502	499.460	-12.091	365.256	486.309	-12.476	487.423	436.916	-13.584	457.790	425.573	-13.369
394.678	501.034	-12.064	365.163	488.553	-12.475	487.972	437.306	-13.612	458.175	426.458	-13.460
394.845	502.803	-12.204	365.086	490.837	-12.474	488.543	437.685	-13.589	458.548	427.329	-13.271
395.041	504.484	-12.238	365.031	493.032	-12.438	489.099	438.085	-13.567	458.970	428.210	-13.389
395.169	506.094	-12.156	364.985	495.330	-12.481	489.668	438.428	-13.589	459.381	429.067	-13.293
395.304	507.824	-12.069	364.924	497.530	-12.481	490.227	438.837	-13.553	459.767	429.964	-13.282
395.477	509.427	-11.989	364.891	499.846	-12.463	490.769	439.216	-13.563	460.206	430.848	-13.363
395.601	511.194	-12.050	364.880	502.063	-12.409	491.354	439.582	-13.583	460.641	431.736	-13.249
395.776	512.855	-12.173	364.860	504.325	-12.404	491.896	439.971	-13.514	461.079	432.644	-13.331
395.964	514.504	-12.192	364.852	506.629	-12.402	492.482	440.364	-13.566	461.546	433.511	-13.257
396.117	516.236	-12.103	364.871	508.899	-12.383	493.036	440.710	-13.475	461.991	434.423	-13.289
396.229	517.878	-11.989	364.915	511.168	-12.358	493.602	441.112	-13.531	462.465	435.300	-13.231
396.355	519.440	-11.918	364.949	513.393	-12.351	494.167	441.486	-13.487	462.958	436.181	-13.271
396.506	521.251	-12.058	364.976	515.672	-12.316	494.699	441.898	-13.470	463.412	437.086	-13.183
396.718	523.021	-12.136	364.999	518.016	-12.326	495.324	442.241	-13.510	463.942	437.974	-13.283
396.886	524.634	-12.112	365.038	520.242	-12.304	495.787	442.656	-13.470	464.380	438.958	-13.186
397.015	526.331	-12.094	365.102	522.507	-12.311	496.438	443.047	-13.479	464.925	439.839	-13.284
397.127	527.981	-11.990	365.179	524.903	-12.307	496.927	443.463	-13.493	465.413	440.806	-13.192
397.254	529.677	-11.984	365.283	527.191	-12.318	497.550	443.768	-13.423	465.956	441.654	-13.192
397.357	531.338	-12.004	365.464	529.490	-12.336	498.078	444.349	-13.551	466.497	442.603	-13.234
397.555	533.003	-12.069	365.606	531.719	-12.324	498.637	444.583	-13.410	467.020	443.378	-13.071
397.771	534.811	-12.100	365.692	534.087	-12.356	499.271	444.964	-13.539	467.621	444.453	-13.256
397.923	536.560	-12.076	365.770	536.369	-12.332	499.715	445.467	-13.448	468.115	445.257	-13.039
398.052	538.009	-11.962	365.935	538.691	-12.252	500.371	445.816	-13.492	468.744	446.254	-13.245
398.129	539.781	-11.978	366.130	540.870	-12.131	500.907	446.054	-13.401	469.279	447.093	-13.083
398.272	541.547	-12.003	366.322	543.344	-12.203	501.467	446.705	-13.456	469.874	448.045	-13.148
398.483	543.178	-11.984	366.509	545.609	-12.269	502.033	446.887	-13.476	470.495	448.929	-13.117
398.628	544.857	-11.998	366.680	547.804	-12.291	502.594	447.402	-13.368	471.065	449.846	-13.058
398.796	546.568	-11.986	366.866	550.097	-12.101	503.130	447.691	-13.437	471.686	450.719	-13.061
398.936	548.291	-11.992	367.104	552.555	-12.122	503.716	448.202	-13.411	472.329	451.670	-13.063
399.061	549.983	-11.976	367.319	554.767	-12.254	504.252	448.457	-13.387	472.903	452.518	-13.016
399.198	551.564	-11.920	367.561	557.042	-12.254	504.848	448.995	-13.442	473.558	453.434	-13.021
399.357	553.286	-11.924	367.849	559.354	-12.138	505.369	449.316	-13.372	474.230	454.405	-13.091
399.509	555.086	-11.966	368.081	561.643	-12.181	505.935	449.648	-13.422	474.847	455.198	-12.996
399.662	556.703	-11.942	368.326	563.969	-12.242	506.517	450.139	-13.398	475.545	456.147	-13.011
399.816	558.405	-11.950	368.660	566.277	-12.205	507.053	450.475	-13.405	476.204	457.052	-13.035
