NO_OF_FRAMES	256
NO_OF_CAMERAS	2
NO_OF_MARKERS	4
FREQUENCY	500
NO_OF_ANALOG	0
ANALOG_FREQUENCY	0
DESCRIPTION	--
TIME_STAMP	2024-11-07, 11:20:55.291	4337.36886440
DATA_INCLUDED	3D
MARKER_NAMES	New 0000	New 0001	New 0002	New 0003
TRAJECTORY_TYPES	Measured	Mixed	Measured	Measured
238.073	154.388	-14.501	209.855	161.375	-14.601	313.116	352.691	-14.867	282.605	360.531	-14.590
238.712	155.838	-14.398	210.579	163.035	-14.640	312.976	352.642	-14.862	282.185	359.307	-14.662
239.406	157.359	-14.408	211.265	164.643	-14.595	312.809	352.554	-14.874	281.751	357.940	-14.541
240.015	158.826	-14.417	211.958	166.268	-14.601	312.632	352.479	-14.839	281.376	356.678	-14.599
240.693	160.306	-14.393	212.659	167.890	-14.585	312.483	352.415	-14.850	281.085	355.365	-14.546
241.382	161.794	-14.358	213.355	169.486	-14.526	312.352	352.378	-14.926	280.778	354.106	-14.674
242.028	163.217	-14.333	214.054	171.102	-14.576	312.203	352.331	-14.968	280.663	352.875	-14.631
242.729	164.765	-14.393	214.759	172.687	-14.533	312.019	352.258	-14.819	280.571	351.437	-14.649
243.387	166.178	-14.254	215.478	174.340	-14.488	311.835	352.165	-14.733	280.353	350.184	-14.561
244.044	167.713	-14.325	216.180	175.914	-14.505	311.702	352.120	-14.811	280.261	348.939	-14.572
244.681	169.149	-14.249	216.865	177.575	-14.457	311.543	352.077	-14.934	280.277	347.597	-14.561
245.350	170.693	-14.208	217.593	179.173	-14.462	311.403	352.037	-14.962	280.321	346.308	-14.560
246.012	172.149	-14.213	218.314	180.754	-14.445	311.227	351.999	-14.892	280.408	345.014	-14.610
246.673	173.623	-14.221	219.007	182.394	-14.415	311.069	351.946	-14.823	280.548	343.745	-14.663
247.387	175.096	-14.193	219.726	183.997	-14.432	310.912	351.891	-14.850	280.734	342.475	-14.671
247.996	176.575	-14.197	220.446	185.637	-14.380	310.753	351.843	-14.877	280.938	341.265	-14.614
248.691	178.072	-14.203	221.166	187.223	-14.399	310.594	351.793	-14.873	281.210	340.054	-14.690
249.362	179.537	-14.159	221.875	188.827	-14.429	310.418	351.749	-14.836	281.552	338.828	-14.773
249.978	181.057	-14.143	222.597	190.445	-14.351	310.260	351.715	-14.831	281.885	337.669	-14.773
250.648	182.527	-14.162	223.316	192.078	-14.330	310.108	351.693	-14.908	282.290	336.513	-14.808
251.319	184.003	-14.119	224.050	193.682	-14.444	309.957	351.675	-14.921	282.741	335.377	-14.732
251.978	185.488	-14.149	224.719	195.318	-14.322	309.825	351.610	-14.902	283.257	334.265	-14.857
252.641	186.945	-14.121	225.475	196.908	-14.305	309.658	351.561	-14.912	283.741	333.207	-14.785
253.346	188.419	-14.106	226.212	198.523	-14.322	309.507	351.543	-14.925	284.339	332.123	-14.799
253.979	189.928	-14.124	226.855	200.099	-14.246	309.322	351.500	-14.904	284.970	331.088	-14.849
254.633	191.380	-14.073	227.626	201.705	-14.296	309.155	351.459	-14.914	285.614	330.119	-14.781
255.311	192.888	-14.042	228.321	203.306	-14.226	308.995	351.426	-14.942	286.295	329.147	-14.835
255.982	194.300	-14.088	229.021	204.899	-14.296	308.853	351.402	-14.971	287.014	328.239	-14.886
256.623	195.848	-14.086	229.747	206.548	-14.320	308.703	351.392	-14.982	287.784	327.348	-14.815
257.339	197.274	-14.054	230.443	208.135	-14.218	308.544	351.358	-14.978	288.562	326.510	-14.855
257.972	198.811	-14.068	231.176	209.733	-14.351	308.358	351.283	-14.958	289.393	325.689	-14.895
258.669	200.233	-14.064	231.820	211.330	-14.244	308.190	351.258	-14.968	290.223	324.925	-14.841
259.295	201.738	-14.028	232.547	212.968	-14.233	308.031	351.233	-14.996	291.105	324.170	-14.791
259.946	203.223	-14.036	233.276	214.535	-14.224	307.872	351.216	-15.023	292.012	323.484	-14.883
260.642	204.687	-14.069	233.932	216.207	-14.207	307.685	351.165	-15.003	292.936	322.857	-14.912
261.286	206.183	-13.997	234.677	217.802	-14.262	307.517	351.130	-14.983	293.850	322.225	-14.799
261.973	207.646	-14.043	235.381	219.395	-14.171	307.366	351.128	-14.994	294.816	321.675	-14.782
262.615	209.159	-14.001	236.109	220.994	-14.195	307.216	351.127	-15.038	295.834	321.182	-14.798
263.277	210.611	-13.995	236.818	222.574	-14.277	307.066	351.110	-15.048	296.832	320.727	-14.815
263.928	212.117	-13.970	237.522	224.182	-14.184	306.888	351.083	-15.044	297.830	320.292	-14.735
264.591	213.580	-13.897	238.276	225.807	-14.188	306.737	351.056	-15.025	298.888	319.931	-14.736
265.286	215.066	-13.957	238.985	227.412	-14.236	306.578	351.039	-15.052	299.937	319.593	-14.752
265.938	216.539	-13.931	239.689	228.994	-14.174	306.419	351.013	-15.046	301.018	319.372	-14.738
266.625	218.009	-13.940	240.478	230.590	-14.212	306.224	350.984	-15.009	302.081	319.126	-14.723
267.279	219.459	-13.878	241.149	232.144	-14.049	306.091	350.968	-15.054	303.134	318.918	-14.661
267.922	220.960	-13.836	241.875	233.798	-14.094	306.005	350.929	-15.080	304.186	318.809	-14.563
268.637	222.410	-13.794	242.620	235.427	-14.106	305.863	350.855	-15.045	305.309	318.742	-14.497
269.289	223.912	-13.735	243.325	237.028	-13.978	305.633	350.869	-14.942	306.427	318.748	-14.531
269.994	225.368	-13.774	244.078	238.645	-14.041	305.446	350.860	-14.986	307.536	318.776	-14.548
270.655	226.864	-13.730	244.764	240.204	-14.005	305.313	350.837	-15.029	308.625	318.866	-14.564
271.335	228.303	-13.716	245.484	241.861	-13.904	305.173	350.811	-15.023	309.642	319.024	-14.577
272.011	229.836	-13.736	246.264	243.473	-13.953	304.986	350.820	-14.970	310.685	319.197	-14.541
272.683	231.292	-13.609	246.967	245.068	-13.915	304.808	350.817	-14.965	311.710	319.432	-14.503
273.359	232.825	-13.661	247.704	246.651	-13.911	304.667	350.783	-14.960	312.768	319.691	-14.499
273.994	234.287	-13.628	248.486	248.216	-13.925	304.517	350.765	-14.971	313.817	319.996	-14.479
274.697	235.836	-13.632	249.191	249.790	-13.791	304.358	350.760	-14.933	314.846	320.363	-14.457
275.369	237.221	-13.629	249.970	251.402	-13.900	304.172	350.758	-14.943	315.838	320.792	-14.435
276.028	238.747	-13.679	250.698	252.968	-13.942	304.014	350.731	-14.937	316.784	321.266	-14.428
276.743	240.195	-13.631	251.421	254.542	-13.807	303.853	350.736	-14.932	317.756	321.742	-14.436
277.350	241.735	-13.580	252.201	256.169	-13.850	303.677	350.739	-14.894	318.699	322.308	-14.397
278.046	243.198	-13.627	252.859	257.756	-13.819	303.489	350.752	-14.905	319.599	322.888	-14.305
278.672	244.682	-13.542	253.561	259.367	-13.776	303.303	350.741	-14.915	320.451	323.540	-14.328
279.333	246.147	-13.553	254.360	260.973	-13.820	303.161	350.730	-14.911	321.330	324.208	-14.333
279.974	247.670	-13.568	255.030	262.519	-13.707	302.992	350.720	-14.922	322.190	324.915	-14.370
280.664	249.079	-13.497	255.757	264.109	-13.776	302.824	350.718	-14.932	322.967	325.672	-14.327
281.331	250.596	-13.593	256.502	265.735	-13.781	302.619	350.715	-14.942	323.709	326.487	-14.379
281.958	252.050	-13.506	257.180	267.276	-13.684	302.405	350.726	-14.937	324.477	327.331	-14.381
282.661	253.553	-13.535	257.914	268.920	-13.769	302.219	350.720	-14.882	325.156	328.178	-14.288
283.288	255.007	-13.511	258.626	270.476	-13.738	302.059	350.734	-14.909	325.814	329.062	-14.356
283.920	256.508	-13.475	259.373	272.111	-13.708	301.881	350.740	-14.935	326.455	330.042	-14.324
284.628	257.933	-13.465	260.125	273.749	-13.762	301.694	350.745	-14.945	327.042	330.968	-14.327
285.214	259.480	-13.477	260.817	275.337	-13.761	301.507	350.742	-14.956	327.582	331.979	-14.313
285.939	260.912	-13.500	261.545	276.936	-13.763	301.284	350.738	-14.965	328.104	333.021	-14.331
286.589	262.437	-13.462	262.308	278.557	-13.766	301.088	350.748	-14.927	328.537	334.046	-14.349
287.204	263.913	-13.515	263.010	280.181	-13.714	300.900	350.753	-14.939	329.005	335.133	-14.335
287.908	265.424	-13.542	263.755	281.786	-13.746	300.722	350.767	-14.966	329.348	336.234	-14.352
288.527	266.838	-13.463	264.483	283.407	-13.713	300.526	350.780	-14.991	329.689	337.366	-14.370
289.193	268.379	-13.553	265.203	284.993	-13.693	300.321	350.786	-15.033	329.978	338.493	-14.291
289.839	269.810	-13.488	265.939	286.651	-13.737	300.116	350.758	-15.010	330.222	339.642	-14.356
290.487	271.356	-13.514	266.658	288.214	-13.719	299.912	350.739	-15.019	330.455	340.873	-14.374
291.140	272.830	-13.531	267.396	289.791	-13.698	299.681	350.750	-15.011	330.599	342.079	-14.360
291.791	274.335	-13.488	268.160	291.350	-13.729	299.486	350.723	-15.005	330.700	343.246	-14.392
292.471	275.776	-13.520	268.878	292.971	-13.708	299.299	350.712	-15.014	330.765	344.460	-14.425
293.142	276.550	-13.499	269.671	293.938	-13.614	299.087	351.706	-15.068	330.727	346.540	-14.420
293.900	276.763	-13.438	270.555	294.373	-13.601	298.813	353.315	-15.016	330.655	349.193	-14.392
294.564	277.126	-13.441	271.420	294.933	-13.522	298.607	354.918	-15.003	330.522	351.835	-14.314
295.248	277.462	-13.377	272.285	295.463	-13.503	298.421	356.456	-15.052	330.415	354.491	-14.349
295.971	277.692	-13.343	273.149	296.012	-13.486	298.260	357.989	-15.126	330.273	357.044	-14.353
296.609	277.976	-13.426	274.040	296.535	-13.518	297.933	359.700	-15.128	330.013	359.921	-14.499
297.327	278.300	-13.460	274.885	297.121	-13.531	297.712	361.121	-15.025	329.614	362.504	-14.415
297.932	278.637	-13.437	275.759	297.616	-13.559	297.408	362.722	-14.993	329.376	364.983	-14.375
298.590	278.874	-13.452	276.648	298.182	-13.590	297.225	364.328	-14.974	329.106	367.676	-14.413
299.281	279.244	-13.466	277.550	298.665	-13.632	297.004	365.918	-14.990	328.696	370.371	-14.383
299.955	279.582	-13.480	278.412	299.258	-13.582	296.783	367.493	-15.004	328.292	372.952	-14.381
300.623	279.857	-13.412	279.278	299.743	-13.650	296.570	369.067	-15.004	327.846	375.633	-14.383
301.343	280.141	-13.409	280.169	300.287	-13.583	296.377	370.642	-15.003	327.402	378.225	-14.449
302.025	280.496	-13.440	281.062	300.761	-13.606	296.122	372.220	-14.952	326.881	380.822	-14.367
302.676	280.754	-13.367	281.960	301.315	-13.523	295.866	373.811	-14.965	326.341	383.428	-14.414
303.424	281.025	-13.346	282.855	301.791	-13.509	295.637	375.383	-14.931	325.784	386.006	-14.396
304.089	281.338	-13.373	283.735	302.366	-13.455	295.407	376.965	-14.929	325.172	388.585	-14.411
304.816	281.684	-13.353	284.646	302.840	-13.475	295.196	378.524	-14.928	324.526	391.133	-14.424
305.494	281.936	-13.297	285.530	303.307	-13.449	294.957	380.115	-14.941	323.866	393.671	-14.403
306.195	282.249	-13.322	286.431	303.838	-13.450	294.711	381.674	-14.938	323.150	396.197	-14.446
306.888	282.550	-13.300	287.343	304.302	-13.404	294.511	383.258	-14.951	322.410	398.704	-14.342
307.563	282.850	-13.277	288.279	304.819	-13.409	294.281	384.817	-14.949	321.668	401.182	-14.465
308.257	283.117	-13.314	289.180	305.293	-13.410	294.052	386.382	-14.916	320.857	403.639	-14.425
308.933	283.431	-13.288	290.062	305.824	-13.347	293.806	387.954	-14.880	320.029	406.080	-14.383
309.578	283.786	-13.283	290.990	306.285	-13.397	293.569	389.538	-14.893	319.191	408.494	-14.390
310.292	284.037	-13.318	291.907	306.819	-13.462	293.348	391.083	-14.907	318.319	410.879	-14.426
310.959	284.359	-13.209	292.802	307.281	-13.376	293.102	392.653	-14.935	317.403	413.262	-14.445
311.650	284.637	-13.346	293.702	307.777	-13.312	292.871	394.235	-14.934	316.488	415.600	-14.399
312.316	284.982	-13.270	294.641	308.151	-13.310	292.634	395.778	-14.915	315.510	417.956	-14.464
313.019	285.244	-13.290	295.601	308.745	-13.421	292.388	397.351	-14.880	314.504	420.265	-14.449
313.711	285.560	-13.359	296.468	309.188	-13.381	292.149	398.927	-14.894	313.496	422.495	-14.508
314.358	285.888	-13.221	297.394	309.695	-13.425	291.920	400.490	-14.923	312.446	424.774	-14.506
315.069	286.137	-13.353	298.262	310.111	-13.321	291.698	402.064	-14.907	311.385	426.978	-14.530
315.720	286.437	-13.269	299.226	310.590	-13.361	291.435	403.616	-14.902	310.320	429.195	-14.524
316.430	286.694	-13.243	300.207	311.010	-13.374	291.203	405.153	-14.902	309.248	431.366	-14.531
317.102	287.059	-13.377	301.171	311.532	-13.412	290.973	406.747	-14.931	308.126	433.482	-14.535
317.762	287.352	-13.211	302.036	312.005	-13.339	290.747	408.300	-14.927	307.001	435.587	-14.507
318.480	287.641	-13.328	302.911	312.439	-13.312	290.479	409.873	-14.894	305.852	437.660	-14.556
319.117	288.032	-13.330	303.811	312.894	-13.334	290.240	411.424	-14.876	304.684	439.733	-14.604
319.839	288.245	-13.247	304.821	313.343	-13.416	289.994	412.987	-14.904	303.519	441.741	-14.616
320.523	288.562	-13.389	305.838	313.823	-13.516	289.764	414.550	-14.934	302.310	443.723	-14.611
321.188	288.875	-13.278	306.769	314.231	-13.357	289.527	416.110	-14.914	301.085	445.658	-14.603
321.916	289.146	-13.313	307.643	314.679	-13.231	289.270	417.646	-14.896	299.860	447.562	-14.593
322.512	289.532	-13.319	308.518	315.075	-13.137	289.061	419.236	-14.956	298.645	449.452	-14.597
323.251	289.718	-13.269	309.517	315.623	-13.389	288.813	420.779	-14.921	297.411	451.319	-14.601
323.939	290.078	-13.372	310.444	316.060	-13.486	288.558	422.307	-14.901	296.163	453.146	-14.600
324.599	290.463	-13.325	311.483	316.520	-13.542	288.354	423.941	-14.916	294.905	454.948	-14.582
325.328	290.663	-13.228	312.357	316.917	-13.350	288.088	425.431	-14.913	293.647	456.729	-14.595
325.973	291.029	-13.371	313.279	317.315	-13.200	287.859	427.079	-14.910	292.321	458.332	-14.560
326.675	291.347	-13.252	314.242	317.759	-13.134	287.578	428.534	-14.777	291.061	460.053	-14.581
327.360	291.637	-13.229	315.231	318.210	-13.211	287.373	430.189	-14.761	289.800	461.708	-14.570
328.035	291.933	-13.384	316.246	318.623	-13.371	287.182	431.662	-14.885	288.515	463.307	-14.624
328.735	292.216	-13.270	317.143	319.076	-13.482	286.956	433.292	-15.030	287.245	465.054	-14.593
329.392	292.620	-13.322	318.065	319.511	-13.420	286.691	434.781	-14.994	285.980	466.520	-14.644
330.096	292.798	-13.299	318.959	319.849	-13.189	286.452	436.287	-14.890	284.697	468.115	-14.661
330.814	293.096	-13.182	319.967	320.346	-13.193	286.214	438.016	-14.923	283.428	469.450	-14.573
331.468	293.590	-13.362	320.981	320.683	-13.161	286.010	439.421	-14.885	282.193	470.946	-14.602
332.155	293.724	-13.179	321.977	321.071	-13.220	285.724	441.060	-14.882	280.912	472.337	-14.592
332.892	294.019	-13.250	322.989	321.593	-13.311	285.515	442.542	-14.847	279.604	473.800	-14.616
333.557	294.419	-13.319	323.888	321.772	-13.230	285.304	444.106	-14.844	278.335	475.079	-14.586
334.222	294.689	-13.101	324.805	322.368	-13.261	285.074	445.641	-14.874	277.096	476.390	-14.559
334.969	294.954	-13.348	325.733	322.712	-13.153	284.852	447.194	-14.856	275.871	477.632	-14.544
335.602	295.250	-13.219	326.712	322.958	-13.084	284.618	448.744	-14.866	274.673	478.846	-14.546
336.326	295.626	-13.115	327.762	323.551	-13.162	284.412	450.286	-14.882	273.449	480.025	-14.527
337.029	295.888	-13.343	328.754	323.815	-13.130	284.185	451.826	-14.878	272.230	481.211	-14.558
337.668	296.182	-13.039	329.762	324.209	-13.066	283.937	453.378	-14.843	271.022	482.347	-14.571
338.433	296.498	-13.183	330.670	324.581	-13.115	283.708	454.938	-14.871	269.844	483.439	-14.535
339.052	296.788	-13.145	331.629	324.961	-13.138	283.489	456.497	-14.820	268.677	484.495	-14.513
339.780	297.105	-13.031	332.599	325.324	-13.074	283.261	458.037	-14.816	267.536	485.529	-14.508
340.511	297.402	-13.270	333.541	325.701	-13.059	283.046	459.566	-14.848	266.420	486.523	-14.551
341.086	297.685	-12.985	334.560	326.150	-13.095	282.819	461.138	-14.843	265.315	487.499	-14.577
341.883	298.047	-13.100	335.565	326.415	-13.034	282.590	462.679	-14.840	264.222	488.477	-14.553
342.524	298.352	-13.176	336.518	326.747	-13.030	282.387	464.243	-14.822	263.171	489.400	-14.580
343.198	298.613	-12.968	337.501	327.224	-12.964	282.150	465.766	-14.802	262.097	490.265	-14.523
343.953	298.968	-13.222	338.481	327.482	-13.011	281.909	467.317	-14.816	261.076	491.124	-14.532
344.554	299.309	-13.048	339.439	327.904	-13.121	281.680	468.874	-14.812	260.070	491.951	-14.543
345.310	299.562	-13.043	340.403	328.300	-13.091	281.460	470.433	-14.825	259.106	492.768	-14.520
345.970	299.795	-13.184	341.389	328.534	-13.026	281.265	471.976	-14.824	258.192	493.492	-14.502
346.629	300.238	-12.994	342.336	328.891	-12.961	281.055	473.503	-14.820	257.227	494.281	-14.510
347.405	300.484	-13.179	343.316	329.322	-12.963	280.832	475.046	-14.835	256.345	495.016	-14.505
348.009	300.706	-13.064	344.330	329.575	-13.005	280.586	476.616	-14.798	255.493	495.759	-14.568
348.728	301.050	-13.025	345.282	329.944	-13.026	280.373	478.146	-14.828	254.649	496.428	-14.532
349.429	301.375	-13.216	346.257	330.261	-13.101	280.143	479.704	-14.825	253.809	497.114	-14.578
350.075	301.680	-13.018	347.278	330.623	-13.188	279.939	481.230	-14.807	253.042	497.736	-14.595
350.789	301.966	-13.150	348.246	330.953	-13.114	279.728	482.785	-14.836	252.291	498.361	-14.519
351.469	302.283	-13.118	349.202	331.224	-13.027	279.505	484.310	-14.819	251.595	499.033	-14.667
352.159	302.613	-13.000	350.165	331.548	-13.023	279.284	485.847	-14.831	250.874	499.574	-14.543
352.875	302.806	-13.230	351.108	331.863	-12.961	279.072	487.402	-14.861	250.251	500.185	-14.632
353.539	303.130	-13.061	352.095	332.113	-13.010	278.877	488.946	-14.859	249.592	500.707	-14.591
354.221	303.483	-13.120	353.116	332.457	-13.157	278.657	490.480	-14.840	248.994	501.284	-14.603
354.904	303.728	-13.113	354.084	332.796	-13.140	278.426	492.023	-14.837	248.486	501.824	-14.621
355.615	304.021	-13.020	355.087	333.054	-13.125	278.214	493.524	-14.866	247.892	502.319	-14.599
356.286	304.265	-13.165	356.090	333.358	-13.109	278.012	495.110	-14.879	247.466	502.899	-14.669
356.971	304.653	-13.083	357.038	333.644	-13.029	277.813	496.537	-14.880	247.005	503.360	-14.610
357.675	304.928	-13.067	357.996	333.958	-13.028	277.586	498.183	-14.875	246.542	503.919	-14.646
358.342	305.198	-13.087	358.983	334.207	-13.038	277.366	499.586	-14.876	246.207	504.349	-14.627
359.105	305.493	-13.058	359.961	334.442	-13.065	277.174	501.212	-14.884	245.848	504.902	-14.652
359.763	305.833	-13.091	360.929	334.813	-13.074	276.981	502.797	-14.882	245.616	505.379	-14.760
360.444	306.099	-13.018	361.951	335.059	-13.114	276.803	504.363	-14.913	245.296	505.916	-14.639
361.200	306.384	-13.033	362.946	335.359	-13.072	276.626	505.840	-14.860	244.908	506.276	-14.540
361.823	306.647	-13.035	363.950	335.583	-13.014	276.396	507.439	-14.865	244.707	506.938	-14.707
362.540	306.994	-12.988	364.899	335.868	-12.957	276.211	508.836	-14.723	244.578	507.386	-14.625
363.243	307.255	-13.035	365.877	336.114	-13.011	275.987	510.495	-14.757	244.479	507.863	-14.686
363.890	307.528	-12.925	366.836	336.396	-12.934	275.769	512.008	-14.800	244.380	508.367	-14.673
364.645	307.860	-12.970	367.824	336.670	-12.999	275.566	513.537	-14.845	244.309	508.902	-14.709
365.276	308.117	-12.986	368.820	336.886	-12.950	275.381	515.074	-14.828	244.270	509.414	-14.729
365.994	308.440	-12.936	369.832	337.131	-12.968	275.197	516.670	-14.842	244.281	509.934	-14.755
366.723	308.741	-12.963	370.800	337.406	-12.902	275.028	518.190	-14.805	244.325	510.446	-14.764
367.361	308.984	-12.868	371.768	337.672	-12.902	274.810	519.775	-14.805	244.387	510.986	-14.764
368.126	309.322	-12.957	372.720	337.889	-12.901	274.617	521.327	-14.834	244.492	511.514	-14.764
368.774	309.621	-12.938	373.708	338.132	-12.928	274.404	522.874	-14.831	244.618	512.098	-14.784
369.456	309.908	-12.856	374.696	338.391	-12.920	274.212	524.429	-14.828	244.764	512.663	-14.773
370.214	310.201	-12.989	375.664	338.591	-12.917	274.009	525.970	-14.778	244.977	513.246	-14.833
370.816	310.457	-12.829	376.651	338.814	-12.877	273.837	527.519	-14.775	245.216	513.818	-14.795
371.561	310.762	-12.821	377.627	339.055	-12.856	273.622	529.058	-14.773	245.461	514.427	-14.744
372.282	311.063	-12.893	378.579	339.238	-12.816	273.448	530.643	-14.802	245.757	515.038	-14.762
372.891	311.340	-12.715	379.532	339.448	-12.805	273.254	532.186	-14.768	246.082	515.682	-14.849
373.631	311.632	-12.815	380.529	339.647	-12.875	273.080	533.736	-14.766	246.432	516.361	-14.839
374.270	311.871	-12.780	381.490	339.884	-12.878	272.868	535.284	-14.763	246.820	517.017	-14.767
374.981	312.120	-12.738	382.488	340.141	-12.877	272.674	536.851	-14.729	247.208	517.719	-14.811
375.691	312.506	-12.856	383.444	340.327	-12.822	272.452	538.397	-14.709	247.669	518.399	-14.859
376.319	312.725	-12.708	384.423	340.503	-12.823	272.275	539.975	-14.740	248.116	519.181	-14.841
